1503701484724,-2, -2, -3, -1, 1, -1, -1, 5
1503701484747,2, 0, 1, 0, -1, 0, 0, 3
1503701484748,1, 0, 1, 0, -1, -1, 0, 3
1503701484764,-1, 0, -1, -1, 1, 0, 0, 2
1503701484774,0, 0, -1, 0, -1, 0, -1, -5
1503701484778,-1, -2, -1, 1, -2, 0, 0, -6
1503701484784,-4, -3, -1, -2, -1, -2, -3, -6
1503701484800,-2, 2, -2, -1, -1, -1, -1, 1
1503701484807,0, 0, -1, -1, 0, -1, 0, 4
1503701484822,1, -1, -1, -2, -1, -1, 0, -2
1503701484829,0, 1, 0, 0, 0, 0, -1, 0
1503701484838,1, -2, -1, 0, 0, 0, -1, 2
1503701484844,2, -3, -1, -1, -1, 1, 1, -1
1503701484860,-1, 0, -1, 0, -1, -1, -3, -4
1503701484867,-1, 0, -1, -1, 1, 0, -1, -6
1503701484885,2, 1, 2, -1, -1, 0, 1, 3
1503701484890,-3, -2, -1, -1, -1, -2, -2, -2
1503701484898,0, -1, -1, -1, -1, -2, -1, 1
1503701484904,-4, 2, -1, -2, -2, 0, -1, 1
1503701484920,-1, 0, -2, -1, -3, -2, -1, 0
1503701484927,1, -2, -3, -3, 0, -2, -4, -6
1503701484943,-1, -1, -1, -1, -1, -1, 0, -2
1503701484950,-1, -1, -1, 0, -2, 0, -2, 2
1503701484957,-5, -2, -3, -1, 0, 0, -2, -3
1503701484964,1, -1, -1, -1, -1, -2, 2, 0
1503701484980,0, -1, -1, 0, -1, 0, -1, -1
1503701484987,1, -1, 0, -1, 1, 0, 1, 0
1503701485003,-2, -1, 0, 1, 1, 0, -1, 2
1503701485010,3, 0, 2, 0, 1, -2, 1, 3
1503701485018,1, -1, -1, -1, -2, -1, -1, 1
1503701485032,-2, 0, -1, 0, -3, 0, -1, 1
1503701485044,0, -1, 0, 0, -1, -1, 0, 3
1503701485048,-1, -2, -1, -2, -2, 0, 0, -3
1503701485062,-1, 0, -2, -1, -1, 1, -1, -1
1503701485069,-2, -1, -1, -1, -1, 0, -2, 0
1503701485078,0, -2, -1, -3, 1, -1, -1, -3
1503701485092,-2, -2, -2, -1, 0, 0, -1, 1
1503701485100,-2, -1, -1, 0, 0, -1, -1, 0
1503701485107,-2, -1, -3, 0, -1, 0, -2, -2
1503701485122,-1, -1, 0, -1, -1, -2, 0, -1
1503701485129,-1, -1, 0, 0, -1, -1, 0, 1
1503701485138,-2, -2, -1, -1, -2, -2, -2, -6
1503701485153,3, 1, -2, -1, 0, -1, 0, 1
1503701485161,-2, -3, -2, -1, -2, -1, -1, 0
1503701485167,1, -3, 0, 0, -1, 0, 1, 0
1503701485183,1, 1, 0, -2, 0, -2, 0, -3
1503701485190,0, -1, 0, 0, -1, 0, -1, 1
1503701485197,0, -2, -1, -1, -1, 1, 1, 4
1503701485213,1, 1, -2, 0, -1, 0, 0, 3
1503701485220,0, 1, -2, 0, 0, 0, 0, -2
1503701485228,0, 0, -2, -3, -1, -2, -1, -4
1503701485245,-1, -1, 1, 0, -1, -1, -1, -2
1503701485250,-3, -1, 0, 1, 0, 0, -1, -3
1503701485257,1, 1, 1, 1, 0, 0, -1, 2
1503701485272,-4, -3, 0, -2, 0, -1, -2, -2
1503701485280,-3, -1, -1, -1, -1, -1, -2, -12
1503701485287,1, 0, 1, -1, -2, -3, 0, 0
1503701485302,1, 0, -2, -2, -2, 0, -1, 0
1503701485312,-2, 2, 0, -1, -1, -1, -1, 0
1503701485318,-3, 0, -2, 0, -1, 0, -2, 1
1503701485332,-1, -2, 0, -1, 2, 1, 0, 1
1503701485340,3, -2, -2, -2, -1, -1, -1, -6
1503701485347,-3, 0, -1, 1, -2, -2, -1, -2
1503701485362,0, -3, -2, -1, -1, -2, -1, -3
1503701485363,-1, 0, 0, 0, 0, -2, 1, 3
1503701485369,0, -1, -1, -2, 0, -1, -1, 0
1503701485379,-1, -3, -3, -2, -1, -2, 0, -2
1503701485392,-2, -3, -3, 1, -1, 0, -1, -1
1503701485400,-1, 1, 0, -1, 1, 0, -1, 5
1503701485407,3, -2, -1, -2, -1, 0, 1, 0
1503701485422,0, -1, -1, 0, 0, -1, -2, -4
1503701485423,3, 2, 0, 0, 0, -1, 1, 3
1503701485429,-1, -1, 1, -1, 0, -3, 0, 1
1503701485438,1, -2, -1, -2, -1, -1, -2, -2
1503701485452,-1, -2, -1, 0, -2, 0, -2, 0
1503701485461,-5, -1, 0, -2, 0, -1, -3, -6
1503701485467,0, 1, -2, -1, -2, 0, -1, -1
1503701485483,-2, -3, -1, 0, -2, 0, -2, 0
1503701485490,-1, -1, -1, 0, -1, 0, -1, 1
1503701485498,-1, 1, -1, 2, -1, 0, 1, -1
1503701485514,-1, 0, -1, -1, 0, 0, 0, 0
1503701485521,0, -2, 0, -2, -2, 1, -1, 1
1503701485527,-1, 2, 0, -2, 0, -3, -1, -2
1503701485543,0, 1, -1, -1, -1, -3, 0, -5
1503701485550,-3, -4, -3, -2, 0, -1, -3, -14
1503701485558,-1, 0, -2, -1, -1, -1, -1, 3
1503701485572,0, -1, 0, 0, 0, 1, 1, 0
1503701485587,0, -2, -1, -1, 0, 2, 1, -1
1503701485588,1, 2, -2, -1, -3, 0, 1, 1
1503701485603,-1, 0, 1, -1, -1, -1, -2, -2
1503701485610,-1, -1, 0, -2, 1, -2, -1, 0
1503701485618,1, -1, -2, -2, -1, -3, -2, -1
1503701485632,-2, 0, 0, 2, 0, 0, -3, 1
1503701485640,-5, 3, 1, 1, -1, -2, 1, 4
1503701485647,0, -2, -2, 0, 1, 0, -1, -3
1503701485662,-5, -5, -2, 0, -1, -1, -2, -7
1503701485669,-1, 0, -1, 0, -1, 0, -1, 1
1503701485685,-1, -1, -1, -1, 0, -2, -1, 1
1503701485692,0, -2, -1, -1, -1, 0, 0, 1
1503701485700,0, 0, -2, -1, -1, -2, -1, 1
1503701485707,-1, 0, 1, -2, -2, -1, -1, -5
1503701485724,1, -3, -1, -1, -1, -1, 0, 0
1503701485729,-1, 0, 1, 1, -1, -1, 0, -1
1503701485738,-1, -2, -1, -1, -2, 0, 0, -1
1503701485752,0, -2, 0, -3, -1, -2, -2, -4
1503701485760,0, 2, 0, 0, -2, -2, -1, 0
1503701485767,0, 1, -1, 0, -3, -1, -1, 1
1503701485789,1, 1, 0, 0, 1, -1, 0, 1
1503701485791,2, -2, -3, -1, -2, -1, 1, -4
1503701485798,1, 0, -2, -2, -1, -2, -1, 0
1503701485812,-1, 0, -1, -1, -2, -2, -2, -2
1503701485820,-2, 0, -2, -2, 0, 0, -1, -1
1503701485827,0, -1, 0, -1, -1, 0, -2, -1
1503701485843,-1, -2, -1, 0, -1, 0, -2, 1
1503701485850,-3, -1, -2, 1, -1, -1, 1, 5
1503701485858,-2, -1, 0, 0, 0, 1, -1, 1
1503701485872,1, -2, -1, -1, -1, -1, -1, 5
1503701485880,2, -1, -1, 0, -3, -1, -2, -10
1503701485895,-2, -2, -1, -1, 0, -1, -1, 1
1503701485903,-1, 1, 0, -1, -1, -1, -2, -1
1503701485921,0, -2, -1, -1, -1, -2, 0, 2
1503701485932,4, -2, -1, 0, -1, 0, -1, 0
1503701485940,0, -1, 0, -1, 0, 1, 0, -1
1503701485955,-3, -2, 0, 0, 0, 0, -1, -7
1503701485962,-1, -3, 0, -1, 0, -1, 0, 2
1503701485969,-4, -2, -3, -2, 1, -1, 0, -6
1503701485985,-1, -3, -2, -1, 0, 0, 0, 2
1503701485992,1, 0, -1, -2, 0, -2, 1, 6
1503701486000,-1, 0, 0, -1, 1, -1, 0, -1
1503701486016,-2, -1, 0, -2, -1, 0, -3, -2
1503701486022,-2, 0, -2, -1, -1, 1, 0, 1
1503701486023,1, -1, -3, -1, -1, -2, -1, -6
1503701486029,-1, -1, 0, 0, -2, -1, -1, -3
1503701486044,-1, 0, -2, 0, -2, 1, 0, 1
1503701486052,2, 1, 0, 0, 1, 1, 0, 2
1503701486060,-2, -1, 0, -1, 0, 1, 0, 1
1503701486074,0, -1, -1, 0, 1, -1, -1, 1
1503701486084,0, 0, -2, 2, -1, -2, -1, -1
1503701486090,-1, -2, -1, 0, -1, 0, -2, 0
1503701486104,2, 0, -2, -1, -1, -1, -1, 0
1503701486112,-2, 0, 0, -1, 0, 0, -1, 2
1503701486120,0, 2, -1, 0, 0, -2, 0, -1
1503701486135,-1, 0, 1, -1, -2, 0, -1, -9
1503701486143,0, -3, -1, -1, 0, -2, -2, -9
1503701486151,0, 1, -1, -3, -1, 0, -1, 2
1503701486164,-1, -3, 0, -1, 0, 1, -3, 2
1503701486172,0, -1, -1, -1, -2, -2, -1, 0
1503701486180,-5, -2, -1, -1, -2, 1, -1, -2
1503701486194,-3, 0, -1, 0, -2, -2, 0, -3
1503701486209,0, 1, 0, -1, 0, -1, 1, 3
1503701486211,0, -2, -3, 0, -1, -1, 0, 1
1503701486224,0, -2, 0, -1, -1, 1, -1, 4
1503701486225,-3, -3, 0, -2, -1, 0, 0, -6
1503701486232,-4, -2, 0, -1, 0, -1, 0, 1
1503701486240,1, -1, -1, -1, -1, 0, -3, -6
1503701486255,-1, 1, -1, 0, 0, -2, -1, -4
1503701486269,-2, -1, 0, -1, -1, -1, -2, 1
1503701486270,0, 0, -2, -1, -2, -2, 0, -1
1503701486286,-1, -3, -1, 1, -1, -1, 1, -6
1503701486292,-3, -1, 0, -1, 1, -1, -1, 3
1503701486300,-1, 1, -1, -3, -2, -2, 0, 6
1503701486314,1, -1, -1, -2, -1, -1, 1, -5
1503701486329,-1, 1, -1, 1, -1, 0, 0, 0
1503701486330,-2, -2, -1, 1, 0, -1, -2, -6
1503701486345,2, -2, -2, -1, -1, -1, -1, 2
1503701486353,-1, 0, 1, 0, -1, 0, -2, 1
1503701486361,-3, -2, -1, 1, 0, -1, -2, -1
1503701486375,-1, 0, -1, -1, 0, -1, -1, 0
1503701486382,-1, -1, -2, 0, -1, -1, -1, 1
1503701486390,0, 0, -1, -1, -1, 2, -1, 0
1503701486404,0, -2, 0, -1, 0, -1, 0, -5
1503701486412,1, -1, -1, -1, -1, 1, -2, 1
1503701486421,2, 0, 0, -1, -1, 0, 0, 3
1503701486434,1, 3, 1, -2, 0, -2, 0, -2
1503701486442,-1, -3, -1, -1, 0, 0, 0, -2
1503701486449,0, -1, -1, 0, -2, -1, -2, -1
1503701486464,0, 1, -1, -1, -1, -1, 0, -1
1503701486472,-2, -4, -1, 0, 0, 0, 0, -2
1503701486480,-1, -1, -1, -1, 1, -1, 0, 3
1503701486495,-6, 1, 0, -1, 0, -1, 0, 1
1503701486502,-1, 1, -1, -1, -2, -1, 0, -2
1503701486509,-1, -1, -3, 1, -3, 0, 1, 4
1503701486525,-1, 2, 1, -1, 0, -2, -3, 0
1503701486532,3, -1, 0, -3, -2, 0, 0, -2
1503701486540,0, -1, -1, -1, 0, -1, -1, -1
1503701486555,-1, 0, 0, -1, 0, -1, -1, 2
1503701486563,0, 1, -1, 0, 1, -1, 0, 2
1503701486569,1, -1, -1, -1, 0, -1, -2, -2
1503701486584,-1, 0, -4, -2, -3, 0, -1, 1
1503701486592,0, -2, -1, -2, -1, 0, 1, 4
1503701486600,3, 1, 1, 0, 0, -1, -2, 2
1503701486614,-1, -1, 1, -1, -2, 0, -2, -6
1503701486624,-2, -1, -1, -1, -1, -3, -1, -2
1503701486629,-1, 0, -1, 0, 0, -1, -1, 1
1503701486644,-1, -1, -1, 0, 0, -1, -1, -6
1503701486654,0, -1, -2, 0, 0, 0, -2, -2
1503701486660,-3, 1, 0, -2, -1, 1, 0, 1
1503701486674,-2, 1, -1, 0, -1, -1, 0, 2
1503701486682,-1, 0, 0, 1, 0, 0, -3, 1
1503701486690,1, 3, 0, 0, 0, 0, 0, 0
1503701486704,-2, -2, 0, -1, 0, 0, -1, 0
1503701486712,0, -1, -1, -1, -1, -3, -2, -4
1503701486721,0, -2, 0, -1, 1, -2, 1, -1
1503701486734,-1, -3, -1, -1, -2, -3, -1, -9
1503701486742,-3, 1, -2, 0, 0, 1, -1, -2
1503701486749,-2, -2, 1, 0, 0, 1, -2, -2
1503701486764,-1, -2, -4, -1, -3, -3, -1, -4
1503701486772,-2, -2, 0, -2, 0, 0, 1, -2
1503701486780,0, -2, 0, -1, -1, 0, 0, 4
1503701486794,-1, -2, -2, -2, 0, -2, -3, -4
1503701486802,1, -2, -1, -2, 0, -1, -1, -2
1503701486809,0, 0, 0, 0, 0, 0, -1, 4
1503701486825,1, -2, -3, -1, -2, -2, -1, -2
1503701486832,-2, -4, 1, -1, -1, -2, 1, 1
1503701486840,-1, 0, 0, -1, 0, 0, 0, -1
1503701486855,-4, -2, -2, -2, 0, 0, -3, -4
1503701486863,-2, 0, 1, 0, 0, 1, -1, 4
1503701486876,1, 0, 0, 0, -1, 0, 0, 4
1503701486884,0, -2, -1, 0, -2, 0, -2, -5
1503701486892,-1, 0, -3, -1, -1, 0, -1, 0
1503701486907,-1, -1, -1, -1, 0, -1, 0, -7
1503701486915,1, 0, -2, 0, -2, -1, -1, -1
1503701486923,0, 0, 0, -1, -2, -2, -1, -2
1503701486936,0, 2, 0, 0, -1, -1, 0, -1
1503701486944,-2, -1, 0, 1, 0, 0, 1, 2
1503701486952,2, -2, -1, -2, 0, -1, 0, -5
1503701486967,1, 0, -1, 0, 0, -1, 0, 3
1503701486974,-2, 0, 2, -2, -1, 1, 0, 7
1503701486983,-7, -3, -1, -3, -3, -1, -1, -5
1503701486996,-1, -1, 0, -1, 2, 0, -2, 0
1503701487004,1, 1, -2, -1, 0, -1, -1, 7
1503701487012,0, 0, -1, 0, -1, -2, -1, -1
1503701487027,-1, -1, -1, 0, 1, -1, 1, 0
1503701487034,0, -1, 0, -1, -2, -3, 0, -2
1503701487042,3, 2, 0, -2, -2, 0, -1, -3
1503701487056,-2, -1, -2, 2, -2, 0, -1, 1
1503701487065,-1, -2, 0, -1, 0, -2, -1, 6
1503701487072,2, -2, 0, -2, 0, -2, -1, -1
1503701487090,1, -2, 0, -1, 0, 0, -2, -1
1503701487094,1, -1, -3, -2, 0, -3, 2, -1
1503701487102,-2, -2, -2, -2, -1, -2, -4, -9
1503701487116,0, 0, 0, 0, -2, 0, -1, 0
1503701487124,-2, -3, -2, -1, 0, -2, 0, -1
1503701487132,-1, 0, -3, 0, -2, 0, -2, 0
1503701487147,-2, -1, 0, 1, 1, -1, -1, 0
1503701487157,0, -1, 2, -2, 1, 0, 1, 0
1503701487163,2, -1, 0, -1, 0, 1, 0, 2
1503701487176,3, 0, 0, -1, 0, 1, 0, 3
1503701487185,1, 0, 0, -1, -2, 0, -1, -5
1503701487193,-3, 1, -1, 0, -1, 0, -1, -1
1503701487207,-7, -1, -1, -2, -2, 0, 0, -2
1503701487214,0, 0, 1, -1, -2, -1, -3, -3
1503701487224,0, 0, -1, 1, -2, 0, -1, 2
1503701487236,-3, -1, -3, -1, 0, -1, 0, 0
1503701487244,1, -2, -3, -1, 0, 0, 0, 1
1503701487252,0, -1, 0, -2, 1, -2, -1, -3
1503701487267,0, -1, -1, -1, 0, -2, -2, -2
1503701487268,3, 2, -2, -1, 0, -2, 0, -1
1503701487274,0, 0, 0, 0, 0, -1, 1, 0
1503701487282,2, -3, -1, 1, -1, -1, -2, 0
1503701487296,0, -2, -2, -1, -2, 0, 0, 0
1503701487304,0, -1, 0, -1, -1, -1, 0, -3
1503701487312,-3, -1, -2, 1, 0, 0, -1, 1
1503701487328,-2, -1, -1, -1, -2, -1, -2, -3
1503701487335,0, -1, -2, -1, 1, -2, -1, 1
1503701487342,1, 1, 0, -1, -1, -1, 0, 4
1503701487359,-3, 0, 0, -1, -1, 0, 1, -3
1503701487364,-2, -3, -2, 1, -1, 0, -1, -9
1503701487372,0, -1, 0, 1, 0, -1, -2, 0
1503701487387,-1, 0, 0, -1, -1, -1, -2, -1
1503701487395,-2, -2, -2, -1, -2, 1, 0, -1
1503701487402,0, -1, -1, -1, -2, -2, -1, 3
1503701487416,0, -1, 0, -1, -1, -2, -2, 4
1503701487426,-3, -2, 0, -1, -2, 1, 0, -1
1503701487433,1, 0, 1, 0, -2, -1, -1, -3
1503701487447,-1, 0, 0, -1, 0, 0, 2, 0
1503701487454,0, -1, -1, -2, -2, -2, -1, -5
1503701487463,-1, -3, 0, -2, 0, 0, 0, 1
1503701487476,-1, 0, -3, -1, 0, -3, -2, -11
1503701487484,-2, -2, -2, -2, -3, -1, 0, -2
1503701487492,-1, -1, 0, 0, -1, 1, -1, 3
1503701487507,0, -1, 0, 0, 0, -3, -1, -1
1503701487514,0, 0, -2, 0, -1, -1, 1, -3
1503701487522,0, 1, -2, 1, -1, -1, -2, 2
1503701487537,-3, -3, -2, -1, 0, -1, -1, 0
1503701487545,1, -2, -2, 0, 0, -1, -1, 1
1503701487552,1, 0, 0, 0, 0, 0, 0, 0
1503701487567,-1, 0, 1, 0, 0, 0, -1, -5
1503701487574,-2, -4, 0, -4, 0, -2, -1, 6
1503701487582,-1, -1, -1, -1, 1, 1, -2, 0
1503701487597,0, -1, -2, -1, -2, -1, 0, 2
1503701487606,0, 1, -2, -1, 0, -1, -1, -1
1503701487613,1, -1, -1, 1, 1, -1, 0, -4
1503701487627,-4, 0, -1, 0, 0, -1, -2, -6
1503701487636,-1, 0, 1, -1, 1, 1, -1, -1
1503701487642,1, 0, 0, -1, -2, -1, 0, 6
1503701487660,-1, 2, 0, 0, -3, 0, 1, 3
1503701487666,1, 0, 0, 0, -1, 0, -1, 3
1503701487672,0, 0, -1, -2, -1, 0, 1, 4
1503701487687,-1, -2, -1, -1, -1, -3, -3, -4
1503701487695,-3, -4, -2, -3, -3, -2, -1, 1
1503701487702,-2, -1, -3, -1, -2, -1, -1, 0
1503701487717,-2, -1, -2, -2, 0, 0, -1, -1
1503701487726,-2, 0, -1, -1, -1, -1, 1, -3
1503701487740,1, 0, -3, 0, -1, -2, -3, -6
1503701487747,-2, -1, -1, -1, -2, -2, 0, -2
1503701487754,-1, 1, 1, -2, -1, 0, -1, -2
1503701487763,0, -1, 1, -1, 0, -2, -2, 2
1503701487777,0, -3, 1, 2, -1, -2, -1, -1
1503701487785,0, -1, -2, -3, -1, -1, -1, -5
1503701487799,0, -1, -1, -1, 1, -2, -1, -3
1503701487809,1, 0, 0, -1, 0, 0, -2, -2
1503701487815,-4, -2, -4, -1, -1, -2, -2, -6
1503701487829,-2, -1, -2, 0, -2, 0, -2, -4
1503701487837,2, 1, -1, 0, -2, 1, -1, 4
1503701487845,-1, -1, -2, -2, 1, 0, 0, 3
1503701487860,-1, -1, 0, -1, -1, -1, -1, -1
1503701487867,-1, -2, 0, 0, 0, -1, 0, -1
1503701487874,-3, 1, -1, -3, -1, 0, -1, -2
1503701487889,-1, 0, -1, 0, -2, 0, 0, -5
1503701487897,-2, 0, 1, 0, 0, -1, -1, -3
1503701487906,0, -1, -1, -1, -1, -2, 0, 2
1503701487920,0, -2, -2, 0, 1, -1, -1, -1
1503701487927,2, 1, 0, -1, 2, 0, 0, 0
1503701487935,2, 1, 1, 0, -2, 0, 0, 0
1503701487949,-1, -1, -1, 0, -2, -2, -2, -3
1503701487957,-1, -1, -1, 0, -1, -1, -1, 1
1503701487965,0, -3, 0, -3, -1, -2, 0, -6
1503701487979,1, -1, 0, -1, -2, -1, -1, -1
1503701487987,0, -2, 0, 1, -1, 0, 0, 3
1503701487994,-3, -3, -2, 0, -2, 0, -1, -6
1503701488009,-4, 1, 0, 0, -1, 0, 0, 2
1503701488017,0, 1, -1, -1, -1, -2, 1, 0
1503701488025,1, -2, -1, -1, -1, 2, 0, 1
1503701488039,-1, -2, -2, -1, 1, 0, -3, -1
1503701488047,2, -1, -1, -2, 0, -2, -1, -1
1503701488054,-8, -3, -2, -1, -2, -1, -1, -3
1503701488070,-3, 1, 0, 0, 0, 0, -1, 2
1503701488077,1, 0, -1, -2, -2, -1, -3, -1
1503701488085,0, 1, -2, -2, -2, -1, 0, 2
1503701488099,1, -3, -1, 0, -1, 0, -2, -3
1503701488107,2, -1, -2, -1, 0, 0, -2, -4
1503701488114,2, -2, -1, -1, -2, -1, -1, 0
1503701488129,-1, -3, -2, -1, -1, -2, 0, -4
1503701488137,1, 0, -1, -1, 0, -1, 0, 3
1503701488145,-1, 1, 0, 0, 0, 0, -1, 3
1503701488159,0, 1, 0, -1, -2, 1, 0, -3
1503701488167,-2, 0, -1, -1, -1, -1, -2, 3
1503701488174,0, 0, 2, 1, 1, 0, 1, 4
1503701488189,-2, -2, -2, 2, -1, 0, -2, -4
1503701488197,-6, -5, -3, -1, 1, -2, -2, 1
1503701488205,0, -2, -1, 0, -2, -1, 0, -4
1503701488219,0, 1, -1, -1, -2, -1, -1, -3
1503701488229,1, -2, -2, -1, -1, -1, -1, -2
1503701488235,1, -2, -1, -3, 0, 0, 0, 3
1503701488250,-3, -1, 1, -3, 0, -1, 0, -2
1503701488257,1, 3, -1, -2, 1, -1, -1, 4
1503701488265,0, 0, 0, -2, 0, -1, 1, 2
1503701488279,-2, -1, -1, -1, -3, -1, -1, 1
1503701488287,0, -2, -2, -2, 0, 1, -3, -3
1503701488296,-3, -1, -1, 0, 0, -1, -1, -2
1503701488309,-1, 0, -1, -1, 0, 1, 0, 3
1503701488317,-1, 1, -1, 0, -2, -1, 0, -2
1503701488325,1, 0, -1, -1, -3, 0, -1, 2
1503701488339,0, -2, -1, 0, -1, 0, -1, -3
1503701488347,-1, -6, -4, 0, -2, -2, -1, -8
1503701488354,0, -1, -2, 0, -1, 0, -3, -1
1503701488369,-2, -1, 1, -1, -1, 0, 0, 3
1503701488377,-2, 0, -1, -1, -1, 1, 0, -4
1503701488385,0, 1, 0, -1, 1, 1, -1, 1
1503701488400,2, -1, 1, -2, 1, 0, -1, 3
1503701488407,0, -1, 1, -3, -1, 0, -2, 0
1503701488414,2, -2, -2, 0, -1, -1, -1, -1
1503701488430,-2, -1, 0, 0, -1, -3, 0, 0
1503701488437,0, 0, 0, 0, -1, -1, 0, -1
1503701488445,-3, -1, -3, -1, 0, -2, -2, -4
1503701488459,1, -3, -1, 0, 0, 0, -1, 2
1503701488468,1, 0, -1, -1, -3, 0, -2, -1
1503701488474,-3, 1, 0, -1, 1, -1, -1, -1
1503701488489,0, 0, -1, -1, 0, -3, 0, 0
1503701488497,-1, 0, 1, -1, -3, -1, 1, -2
1503701488505,1, 0, 0, 0, 0, 0, 0, -3
1503701488519,-2, -1, -2, -1, 0, -2, -2, 1
1503701488527,2, -3, -2, 0, -2, -2, -1, 0
1503701488535,-1, -1, -3, -2, 0, 1, -1, 0
1503701488549,-1, 1, 0, 1, 0, 0, -1, -2
1503701488557,0, 0, -1, 0, -1, 0, 0, -2
1503701488565,0, -1, -2, -2, -1, -1, -1, -2
1503701488579,1, -1, 2, 0, 0, -2, 0, 0
1503701488587,-4, -5, -1, -2, -1, 0, -2, -4
1503701488597,0, -1, -1, -1, -2, 0, -3, -4
1503701488609,-2, -2, -3, -1, -1, -1, 0, 0
1503701488617,-1, -2, -2, -1, 0, -1, 0, -2
1503701488625,-2, 0, 0, 0, -1, 0, -2, -4
1503701488640,-1, 0, -2, -2, -1, -1, 1, 0
1503701488647,2, 1, 2, 0, 0, -2, 1, 6
1503701488654,3, -2, -1, -2, 0, -2, -3, -1
1503701488670,-3, -2, -2, -2, -2, -1, -1, -3
1503701488677,-2, -4, -3, -2, -1, 0, 0, -12
1503701488685,-1, 0, 1, 1, -1, -1, -1, -3
1503701488699,-3, 1, -1, -1, 0, 0, 0, 1
1503701488707,3, -1, 0, 1, 0, 0, 0, 1
1503701488714,-2, -2, 0, -1, -2, 1, -1, 3
1503701488731,-3, 0, -2, -2, 1, 0, -1, -3
1503701488737,0, -1, 0, 1, 0, -1, -2, 0
1503701488752,-2, 1, 0, -1, -1, 0, 1, 4
1503701488758,1, -2, -1, -3, -3, -1, -1, -3
1503701488767,-1, -1, -2, 0, 0, -1, -2, -2
1503701488781,1, -1, -1, -1, 1, -1, -2, -1
1503701488789,-1, 0, -3, -4, -2, 0, -2, -3
1503701488798,-5, -3, -3, -1, -1, 0, -1, -10
1503701488812,-2, -1, 1, 0, -1, 0, 0, -2
1503701488818,0, 1, 0, 0, 0, 0, 1, 5
1503701488827,1, -1, -3, -1, 0, -1, -1, 2
1503701488841,-3, 1, -1, 0, 0, -1, 1, 4
1503701488849,-3, 0, -1, -1, -2, -3, -1, -2
1503701488857,2, 1, 0, -2, -1, -1, -2, 2
1503701488872,1, 1, -1, 0, -2, -1, 0, 0
1503701488878,-1, -1, -2, -1, -1, -1, 0, 6
1503701488887,-2, -3, 0, -1, -1, -1, -2, -5
1503701488902,0, -1, -1, -1, 0, 0, -1, 2
1503701488911,-2, -2, -1, 1, 1, 1, -1, -5
1503701488917,-3, -2, 0, 1, 0, 0, 0, -2
1503701488932,0, 0, 1, -2, -1, 0, 0, -2
1503701488939,0, -1, 0, -1, -2, -2, 0, -2
1503701488947,-1, 0, -1, -1, 0, -1, 0, -1
1503701488961,-2, 1, 0, 0, -1, -2, -1, -1
1503701488970,-1, -1, -1, 0, 0, -1, -2, -7
1503701488977,-2, -1, 0, -1, 0, 0, -1, -4
1503701488992,-3, 0, -1, -1, -2, -1, 1, 2
1503701489000,-2, -1, -2, -2, -1, -2, -1, -4
1503701489007,2, -1, -1, 1, -1, 0, 0, 0
1503701489021,2, -2, 1, -1, -2, -1, 0, 0
1503701489029,-3, 0, 0, 0, 0, 0, 0, 3
1503701489037,0, -1, 0, -1, 0, -1, 0, 1
1503701489052,2, 2, 1, 0, -2, 0, -1, 5
1503701489059,-1, 0, -1, 0, -1, 0, -1, -1
1503701489067,1, 0, -1, 0, 0, -1, 0, 6
1503701489081,0, -1, 0, -2, 1, 0, 0, 3
1503701489089,-3, -3, -2, -2, 0, 1, -2, -4
1503701489097,-3, -1, 0, 0, 0, 0, -1, -2
1503701489112,-1, -3, 0, 0, -1, -2, -1, 0
1503701489119,0, -1, 0, -2, -1, -1, -2, -5
1503701489127,1, 0, -1, 1, 0, -1, 1, -1
1503701489141,2, 1, 0, 1, -3, 1, -2, 1
1503701489149,0, 0, 0, -2, -1, -2, -1, -1
1503701489157,-3, -2, -3, 0, -2, -1, -2, -4
1503701489172,-1, -4, -1, -1, -2, 0, -1, -4
1503701489178,0, -2, 0, 0, 1, 0, 0, 1
1503701489187,2, 0, -2, 1, 0, -1, 0, 2
1503701489201,0, 0, 0, -1, -1, -1, -1, -5
1503701489210,-1, 1, 0, -2, 1, 1, 0, 1
1503701489217,-2, -1, -2, -1, 1, -1, -1, 0
1503701489234,-1, -1, 1, 0, -3, -1, -1, -4
1503701489239,-2, 2, -1, 1, -2, 0, 1, 0
1503701489247,1, -1, -2, -1, 0, 1, 0, 1
1503701489261,0, 0, -1, -1, -1, 0, 0, 2
1503701489270,-2, -1, -1, -1, -1, 0, -1, 0
1503701489277,1, 0, -3, -3, -1, -3, 0, -6
1503701489293,-3, -2, -2, 0, 0, -2, -1, -1
1503701489301,-1, -1, 1, 0, 0, -1, 1, 2
1503701489307,0, 1, 0, -1, -1, -1, -2, -2
1503701489321,1, 0, -1, -1, 0, -1, -4, -6
1503701489329,-1, -1, -2, -1, -2, -2, -1, -2
1503701489337,0, 0, 0, -1, 0, 0, -1, 1
1503701489352,0, -3, -2, -2, -1, 0, -1, -4
1503701489358,-1, -3, -2, -1, 0, 1, 1, -6
1503701489359,1, -3, -2, -2, 0, -1, 0, -3
1503701489367,-1, 0, 1, 0, 2, 0, 1, 4
1503701489381,-1, 0, -1, -1, -1, 1, 1, 5
1503701489389,0, -2, -2, -1, -1, -1, -2, -5
1503701489397,-2, 0, 0, 1, -1, 0, -2, 0
1503701489412,-1, 0, -1, -4, -1, -2, -2, -6
1503701489418,-1, -1, -3, -1, -1, 0, -2, -7
1503701489427,-1, -1, 0, 0, -1, 2, 0, -4
1503701489441,0, -2, -1, -1, 0, -1, -2, -1
1503701489449,3, 0, 0, 1, -1, 1, -1, 7
1503701489457,-1, 1, -1, 0, 0, -1, -2, 1
1503701489473,-2, -1, 0, 0, 0, -1, -1, 7
1503701489478,-2, -1, -2, -1, -1, -2, -1, 1
1503701489486,-1, 0, -2, 1, -1, 0, -1, 5
1503701489501,-2, -2, 1, 0, -1, 0, -1, -1
1503701489510,0, -3, -1, -2, 1, -1, 1, 1
1503701489516,2, 1, -3, -2, 0, 0, 0, 0
1503701489532,0, 0, 2, 0, -1, 0, 0, 6
1503701489540,0, -1, 0, -1, -2, -1, 0, -3
1503701489547,-3, -2, -2, -1, -1, 0, -2, -4
1503701489561,-2, 0, -2, -2, -1, -1, 0, 1
1503701489571,-1, 0, -2, -1, -1, -2, -1, -4
1503701489577,0, 1, -1, 1, -2, 1, 0, 3
1503701489592,0, -1, -1, -3, -3, 0, 0, -7
1503701489598,-1, -1, 0, 0, 0, -1, -1, -3
1503701489608,1, 0, -1, 0, -2, -2, -1, -1
1503701489621,-1, -1, -1, -3, 0, 0, -1, -7
1503701489629,0, -3, -1, -2, -1, -2, -1, -4
1503701489637,3, 1, 0, 2, 0, -1, -2, 9
1503701489652,1, 0, 0, -1, 0, -2, -1, -2
1503701489658,3, 1, 0, -1, -2, 0, 1, 4
1503701489659,-2, 0, 0, -2, -2, -2, -1, -1
1503701489674,0, 0, -1, -1, 0, -1, -1, -4
1503701489681,-2, -2, -3, -2, 0, -2, 0, 0
1503701489689,-3, 0, -1, 0, -1, -1, 0, -6
1503701489704,-1, 0, -1, -1, 0, -1, 0, -1
1503701489705,-5, -1, 0, 0, -2, 2, -1, -2
1503701489712,0, 1, 1, 0, 1, 0, 1, 3
1503701489718,3, -2, 0, -1, 0, -1, 0, 0
1503701489736,0, 0, -1, 0, 0, 0, -2, 3
1503701489741,-1, -1, -1, -1, -2, -1, -1, 2
1503701489749,0, 0, -1, -2, -1, -1, -1, -4
1503701489764,0, -3, -2, 0, -2, 1, -2, -1
1503701489772,-2, 1, -1, 0, -3, 0, 1, 3
1503701489773,-3, -2, -1, -1, -2, 0, 0, -5
1503701489779,-3, 0, -2, -2, -2, -3, -2, -4
1503701489794,-1, -2, -1, 1, -1, 0, -2, 1
1503701489803,0, 2, -1, -1, 0, -1, 0, 0
1503701489809,-2, 0, -1, -2, -1, -2, -3, 0
1503701489823,1, -1, 0, -2, 0, -1, -2, -2
1503701489832,-1, -2, -2, -1, 0, 0, -2, 1
1503701489839,-3, -2, -2, 0, 0, 1, 0, -1
1503701489854,-1, -2, 0, 0, -1, 0, 0, -2
1503701489871,2, 1, -2, -1, -1, -2, 0, 0
1503701489884,1, 0, -1, 1, 1, -1, 0, 3
1503701489892,0, 0, 0, -1, 0, -2, 0, 1
1503701489898,-1, -3, -1, -1, 0, -1, -1, -4
1503701489915,3, -2, -1, 0, -1, -2, 1, 1
1503701489921,0, 1, -1, 0, -1, 0, 1, 2
1503701489929,0, -1, 0, -1, 1, -1, -1, -8
1503701489944,3, -1, -1, -2, -2, -1, -1, -4
1503701489952,-3, 0, -1, -2, 0, 1, 0, 2
1503701489958,-2, -2, 0, -2, 0, -1, -1, -6
1503701489974,-1, -1, -2, -1, -1, 0, -1, 0
1503701489981,-2, -1, -1, 0, -1, 0, 0, 2
1503701489989,1, -1, -1, -3, -1, 1, 0, 0
1503701490009,4, -2, -1, -1, -1, 0, -1, -5
1503701490013,-2, 0, -1, -1, -2, 0, -1, 5
1503701490028,-1, 0, -2, -1, 0, -3, -1, 1
1503701490034,-2, -1, -1, 1, -1, -1, -1, -2
1503701490042,-1, 0, 0, 0, -2, -1, 0, -1
1503701490049,-1, 0, -1, 0, 0, 1, -1, -3
1503701490071,-1, 1, 2, 2, 0, 0, -1, 4
1503701490073,-2, -1, -2, -1, -1, -3, -2, -5
1503701490087,0, -3, -1, -1, 0, 0, 0, 1
1503701490094,-1, -1, -1, 1, -1, -1, -1, 0
1503701490105,-1, -1, -1, -1, 0, 0, -1, -3
1503701490109,-1, -1, -1, 0, 1, 0, 0, 2
1503701490125,-1, 0, 1, 0, 0, 0, 0, 3
1503701490132,0, 0, -1, -2, -1, -2, -1, -2
1503701490147,-1, -3, 0, -1, -2, -1, -2, -2
1503701490154,1, 0, 0, -2, -2, 0, 0, 1
1503701490162,-2, -1, -1, -1, -1, 0, 0, -4
1503701490177,0, -2, -1, -3, -1, 1, -3, -5
1503701490185,0, -1, -1, -1, -2, 0, -1, -5
1503701490192,-4, -2, -1, 0, 0, -1, -2, -2
1503701490208,0, 0, -1, -1, -1, -2, -2, 0
1503701490214,0, -2, -2, -2, -2, -1, -1, -3
1503701490222,-1, -2, -2, 0, 1, -3, 0, 1
1503701490229,-2, -2, 0, 1, 0, -3, -2, -9
1503701490245,-1, 1, 0, -1, -1, 0, -2, 3
1503701490252,2, -1, -2, 0, -1, 0, 0, -2
1503701490267,-3, 1, -2, 0, 0, 0, -2, -1
1503701490275,-3, -2, 0, -1, 0, 1, 0, 3
1503701490282,0, 1, 0, 0, 0, -2, -2, -1
1503701490289,3, -1, 0, -2, -1, -3, -1, 3
1503701490307,1, -1, 0, -2, -2, -1, 0, -2
1503701490312,-2, -1, 0, 0, 0, 0, -1, 6
1503701490327,0, -3, -2, -2, 0, 0, -2, -4
1503701490334,0, 1, -2, -1, -1, -2, -2, 3
1503701490343,-4, -2, 0, -1, -1, -1, -2, 0
1503701490349,-1, -1, -2, -1, 0, 0, -1, 3
1503701490350,-1, -1, 1, 1, 0, -1, 1, 4
1503701490365,0, 1, -1, -1, -1, 0, -2, -3
1503701490374,-1, -1, 0, -1, 0, 0, -2, -3
1503701490387,1, -1, 0, 0, 0, 0, -1, 1
1503701490394,4, 0, -2, 0, 0, -2, 0, 4
1503701490402,-1, -2, -2, 1, 0, -1, -2, 4
1503701490410,-1, 1, 0, -2, -3, -1, 0, -2
1503701490425,-2, -1, -3, -1, -2, -1, -1, -1
1503701490432,-1, -1, 0, -1, -1, 0, 0, -2
1503701490447,0, 2, 0, -1, 0, -2, 0, 1
1503701490454,-2, -3, -2, -1, -2, -1, -1, -6
1503701490462,-2, 0, 1, -4, 0, -1, -2, 0
1503701490469,-2, 0, -1, 0, -1, 0, -2, 2
1503701490492,3, 1, 0, -1, -1, -1, 0, 3
1503701490493,0, 0, -1, -2, -1, -1, 0, 1
1503701490508,-1, 0, -2, 0, -1, 0, 0, -1
1503701490515,-2, 0, -1, -2, 0, 0, -2, -5
1503701490522,0, -2, -1, -1, 0, -2, -2, -13
1503701490530,-1, 0, 0, -1, -2, 0, -1, 2
1503701490545,-1, -1, -1, -1, -1, -1, 0, 2
1503701490552,-1, -1, 0, -1, -1, -1, -1, 0
1503701490567,0, 0, 1, -1, -2, -1, -3, -3
1503701490575,-1, 0, -1, -1, -1, -1, 0, -1
1503701490583,-2, -1, -1, -2, 0, 0, -1, -3
1503701490597,-4, -1, -3, -1, 1, 1, 1, 2
1503701490607,0, -1, -2, 0, -3, -1, 1, 2
1503701490612,1, -1, 0, -1, -1, 0, 0, 1
1503701490628,-1, 0, -2, 1, -1, 1, -1, -1
1503701490634,-2, -1, -1, 1, -1, -1, -3, 0
1503701490643,0, -1, -1, -2, -1, -2, -1, 0
1503701490657,-3, -1, 0, -1, 0, -2, -1, -4
1503701490665,-1, -1, -1, -1, -1, -1, -1, 2
1503701490673,2, -1, -1, -1, 0, 0, -2, -1
1503701490687,-2, -3, 0, 0, -1, 0, -1, -1
1503701490694,0, 0, 0, 2, 0, 0, -3, -2
1503701490703,0, 0, 0, 0, 0, 0, -1, 2
1503701490717,-3, 1, -2, -1, -1, -1, -3, -12
1503701490725,0, -3, -1, -1, 0, -1, 0, 2
1503701490732,-1, -1, -1, -1, 0, -1, -1, 1
1503701490747,-3, -1, -1, -3, -1, -3, -1, -4
1503701490755,2, 0, 0, 0, -1, -1, 0, 1
1503701490762,-4, -1, -2, -2, 0, 0, -1, 1
1503701490778,-2, 2, 1, -2, -1, 0, 0, 5
1503701490785,1, 0, -1, -1, 0, -2, -1, 1
1503701490791,-2, -3, -3, -2, 0, -2, -1, 0
1503701490792,-1, -3, -1, 1, 0, 0, -1, -3
1503701490809,-2, -2, -2, 0, -1, -1, -1, 1
1503701490815,1, -1, 0, 0, -1, -2, 1, 1
1503701490822,1, 0, -2, 0, -2, 1, 0, -1
1503701490837,0, -2, 0, -4, -1, 0, -1, 4
1503701490846,2, -2, -1, 0, -1, 0, 1, 1
1503701490852,1, -1, -4, 1, -1, 0, -1, -1
1503701490867,0, -2, 0, 0, 1, -1, -1, 0
1503701490876,1, -1, 0, -3, -1, -3, 0, -5
1503701490883,-2, 0, 1, -1, 0, -2, -1, -1
1503701490897,-2, -1, -1, -3, 0, -3, -2, -3
1503701490905,-3, -1, 0, -1, 0, 0, -3, -5
1503701490917,-1, -1, -1, 0, -1, -1, 0, -1
1503701490927,-1, 0, -2, 0, 1, -2, 0, -5
1503701490934,3, -2, -1, -1, -1, 0, 0, 2
1503701490944,1, 0, -2, -2, -1, 0, -1, -2
1503701490957,-2, -1, -1, 0, -1, -1, -1, -5
1503701490965,1, 1, -1, 0, -1, -2, -1, -1
1503701490972,-1, -2, 0, -1, 0, 0, -1, 0
1503701490987,0, 0, -1, -1, -1, 0, -2, 1
1503701490994,-1, 0, -2, 1, 0, 1, -1, 2
1503701491002,-2, 0, -2, -9, -1, 0, 0, 0
1503701491017,-1, -1, 1, 1, -1, 0, -1, 2
1503701491025,-1, -3, 2, 2, -1, 0, 0, 0
1503701491032,-2, -1, 1, -4, 1, 0, 0, -13
1503701491047,-1, -3, -4, 6, -1, 1, 0, 1
1503701491054,2, 7, 10, -1, -2, -1, 0, -1
1503701491062,-2, 0, 1, 8, 0, 0, -1, -2
1503701491077,2, -8, -24, -6, -3, -2, -1, 1
1503701491085,3, 1, 19, 19, 2, 1, -1, -2
1503701491092,-3, -3, 2, -2, -2, -1, -1, 0
1503701491109,1, 6, 38, 12, 2, 0, -1, -6
1503701491114,-5, -12, -15, -16, -5, -2, -1, -1
1503701491122,-2, 4, -19, -18, -4, -2, -4, 0
1503701491137,-1, 5, 24, 20, 8, 1, -2, 0
1503701491145,2, -13, -30, -16, -4, -2, -1, -1
1503701491152,-1, 18, 11, -3, 0, -1, 1, 2
1503701491167,2, 11, 27, -7, -2, -1, 2, 2
1503701491176,-3, -13, -48, -18, -4, -2, -2, 3
1503701491177,5, -15, -3, 7, -2, -2, -1, -3
1503701491182,-5, 2, -10, -52, -2, -1, -1, -1
1503701491197,7, 2, 28, 20, 5, 2, -1, -1
1503701491205,-3, -7, -24, 5, 0, -1, 2, 3
1503701491213,-10, -8, -24, -18, -6, -2, -2, 2
1503701491227,-10, -2, -12, -5, -3, -1, -2, -1
1503701491234,-1, 5, 12, 4, 1, 1, -2, -1
1503701491244,7, 2, -4, 8, 6, 2, 0, 5
1503701491257,-1, 1, -2, 13, -1, 0, 0, 2
1503701491265,-2, -17, -45, -1, -7, -2, -1, -4
1503701491272,-3, 7, -7, -4, 5, 3, 1, -2
1503701491288,-11, 5, 14, 9, -2, -2, -1, -1
1503701491294,2, -1, 30, -12, -6, -2, -1, 1
1503701491302,15, -3, -2, -14, -3, 0, -1, -1
1503701491317,1, -11, -26, 0, -1, -3, -2, 0
1503701491325,0, 0, 22, 15, 2, 1, 1, -2
1503701491332,3, -7, -27, -13, -4, -3, -1, -1
1503701491347,6, -6, -31, -21, -5, -4, -3, 1
1503701491348,-2, -1, 32, 16, -3, -1, -1, -1
1503701491354,-1, -1, 6, 0, -1, 1, 0, -4
1503701491362,4, 6, 5, 1, 5, 2, -2, 2
1503701491379,2, 5, 0, -20, -6, -3, -3, 0
1503701491385,-9, 1, 30, 27, -2, -1, -1, -3
1503701491392,0, 5, -5, -4, 0, -2, 1, 7
1503701491407,-2, -6, -20, -18, -5, 0, 1, 0
1503701491414,2, -3, 7, 34, -3, -3, -1, -10
1503701491429,-2, -2, -6, 4, 3, 1, -2, -1
1503701491437,-5, 0, -8, -15, -4, -1, -1, 1
1503701491446,0, -3, 21, -5, -4, -4, -4, -1
1503701491452,-4, 6, -12, -8, 1, 1, -1, 0
1503701491467,-4, -4, -33, -10, 2, 0, -1, -7
1503701491474,-2, -5, 9, 11, 0, -1, -1, 0
1503701491483,4, -8, -3, 8, 3, 0, -1, 0
1503701491497,-4, -13, -24, -15, -4, -2, 0, -5
1503701491505,-6, 3, -4, 4, -5, -4, -2, -1
1503701491512,19, -15, -4, -13, 24, 3, 1, 6
1503701491527,37, 4, -2, -10, -55, -22, -2, -1
1503701491534,-31, 30, 9, 18, 80, 58, -13, -7
1503701491549,-10, 14, -5, -7, -1, 17, 19, 3
1503701491557,-43, -2, 4, 5, -24, -19, 3, -5
1503701491565,-9, -1, -6, -7, -16, -17, -4, 14
1503701491581,7, 6, 5, 5, -9, -5, 3, -2
1503701491587,-28, -2, -7, 1, 7, 1, 0, -13
1503701491594,18, -40, -24, -11, -11, -3, -2, 2
1503701491609,51, 20, -5, -11, -22, -20, 1, -6
1503701491611,29, 6, -9, 0, 17, 4, -5, 5
1503701491617,18, 25, 22, 2, -29, -19, -2, -2
1503701491625,14, -14, -2, 2, 16, 9, -2, 0
1503701491640,5, -14, -8, -4, -14, -6, 4, 4
1503701491648,-7, 8, -2, -7, 12, 6, -5, -5
1503701491654,31, 5, -3, -1, -5, -3, -4, -4
1503701491669,-1, 1, 4, 3, -4, -4, -1, -3
1503701491680,-14, 3, 0, -4, -7, -4, 0, -2
1503701491685,-13, -8, 18, 15, 2, 0, -2, -2
1503701491699,-12, 1, -9, -5, -4, -1, 0, 1
1503701491707,-12, 21, -4, -2, 2, -1, -3, 9
1503701491714,14, -26, -13, -1, -4, -5, -1, -7
1503701491729,18, -1, 4, -1, -2, -1, 0, -3
1503701491737,-8, -31, -7, -7, -4, -6, -1, 2
1503701491747,15, 34, 25, 12, 10, 2, 0, -1
1503701491759,-12, -7, 17, -3, 1, -6, -9, -9
1503701491767,-10, -22, -11, -3, -4, -6, -3, -7
1503701491774,1, 16, 6, 11, 7, 8, 3, 6
1503701491789,-9, -4, -4, 0, 2, 2, -2, 2
1503701491797,1, 17, 11, 3, -4, -5, 0, -1
1503701491805,2, 18, 18, 4, 12, 15, 0, 1
1503701491819,-13, 7, -24, -8, -13, -7, 0, -2
1503701491827,-12, 14, -35, -6, 13, 30, 7, 6
1503701491834,15, 68, 30, 8, 0, 35, 2, -24
1503701491849,-22, -34, -2, -33, -52, -54, -36, -37
1503701491857,87, 82, 4, 23, 39, 88, 56, 119
1503701491865,41, 19, -23, -23, -52, -76, -30, -9
1503701491880,-31, -70, 49, 44, 66, 57, 35, -32
1503701491887,-15, -100, 39, -20, -61, -37, -34, -48
1503701491894,-53, -35, -22, 9, 16, -79, -17, -20
1503701491910,-30, 58, 49, 51, 90, 95, 59, 9
1503701491917,-61, -55, -18, -33, -77, -63, -19, -18
1503701491925,76, 40, -9, -19, -19, 46, -15, 20
1503701491939,-4, -18, -24, 18, 68, 104, 34, -15
1503701491947,10, -16, -22, -2, 0, -15, 21, 41
1503701491954,-56, -8, 4, -13, -57, -128, -43, -16
1503701491969,18, 13, -12, 37, 127, 57, 36, 7
1503701491977,-2, 28, 13, -34, -57, -52, -31, 8
1503701491985,-61, -30, -11, 13, 90, -3, 15, 8
1503701491999,36, -20, -14, 5, 22, 51, 27, -2
1503701492007,-9, -47, 46, 1, -47, 50, -14, -18
1503701492015,63, 12, -1, -7, -36, 15, -38, -28
1503701492029,-2, -53, -73, 5, 16, 59, 0, 11
1503701492036,18, 8, -6, -9, -22, 36, 2, 38
1503701492044,-22, -23, 8, 14, 24, 3, -7, -36
1503701492045,-14, -20, -21, -7, -27, 40, 5, 20
1503701492059,-9, -3, -13, -5, 24, -120, -18, -13
1503701492067,14, -28, 3, -12, -46, -128, -6, -20
1503701492074,2, -24, 13, 9, 11, 59, -12, -15
1503701492090,-7, -54, -22, -9, -9, -14, 1, 12
1503701492097,-8, 20, 20, 4, 3, 33, 3, 3
1503701492105,-9, 44, 1, -19, -65, -62, -16, -12
1503701492119,-1, 9, -15, 9, 19, 52, 1, -19
1503701492127,-7, 41, 15, 12, 46, -19, 1, 8
1503701492134,1, 18, -5, -6, -13, -25, 6, 14
1503701492149,-4, -3, -4, 1, -1, 6, -15, 2
1503701492157,5, 1, -14, -11, -14, -39, -7, -16
1503701492165,-2, -2, 12, 7, 8, 75, 11, 9
1503701492179,-6, -6, -9, -16, -34, -41, -6, 15
1503701492187,-3, 14, -7, -3, 27, -1, 0, -3
1503701492194,7, 1, -4, -2, 21, 19, 8, -2
1503701492209,7, 9, 5, -5, -17, -10, 0, 4
1503701492219,1, 1, -2, 4, 31, 33, 1, 13
1503701492225,1, 15, -3, -4, -17, -29, -8, -33
1503701492239,-15, 7, -7, 8, 0, 6, 2, 10
1503701492249,-22, 3, -1, -5, 3, 1, -3, -5
1503701492254,-14, -10, 2, -3, -15, -8, 0, -6
1503701492269,22, 12, 1, 1, -19, 11, 3, 3
1503701492277,5, 1, 2, -2, -5, -6, 0, 4
1503701492285,-12, -3, -6, -10, -29, -5, -1, -4
1503701492300,7, 1, 0, 1, 1, 4, -1, -4
1503701492308,5, 0, 2, 4, -3, -7, 0, -3
1503701492317,7, -3, 0, 0, 10, 4, 1, 0
1503701492329,1, 11, 4, 1, 0, -9, -2, 8
1503701492337,5, -10, -12, -6, -14, -2, -1, -3
1503701492345,-1, 3, 13, 1, 3, 3, 2, 3
1503701492359,7, 0, 6, 1, -4, -5, 0, -1
1503701492367,0, 0, -5, -1, -1, -1, 0, 2
1503701492374,1, -2, -4, -5, -7, -4, -1, -5
1503701492389,-1, 4, -1, -1, 5, -1, -1, -6
1503701492397,-3, -1, -2, 1, -23, 1, -2, -2
1503701492405,4, 1, -2, 0, -8, -3, -3, -1
1503701492420,-2, 2, 2, 2, 5, 3, 1, -15
1503701492427,-3, -2, -4, -2, -3, -1, -1, -4
1503701492434,-5, -1, 2, -9, -29, -2, 0, 3
1503701492451,2, 1, -2, -4, -1, -2, 0, 2
1503701492457,3, 0, 1, -2, 3, 0, -1, 3
1503701492472,-8, 0, -5, -1, -3, -1, 1, -1
1503701492479,0, -3, -3, 0, 6, -1, 1, 3
1503701492490,3, 1, -1, 1, 8, 2, -1, -1
1503701492501,3, 0, -1, 2, 11, -2, -1, 2
1503701492509,3, -6, -5, -5, -11, -3, -2, 0
1503701492518,-2, 0, 5, 3, 2, 0, -1, 0
1503701492532,-2, 1, 1, 2, 4, 0, -2, 1
1503701492539,-2, 0, -2, -1, 8, -2, -1, 2
1503701492547,-2, 1, -2, -1, 0, -2, 1, 0
1503701492561,4, 2, 1, 0, 3, 0, 0, -1
1503701492569,-3, -1, 1, 1, -1, -1, 0, 1
1503701492577,-2, -3, -5, -2, 3, 0, -1, 0
1503701492592,0, -16, 3, 0, 1, 0, -1, -9
1503701492599,-2, -1, 2, 1, 1, 0, 0, 1
1503701492607,0, 2, -6, 0, -1, -1, 0, 0
1503701492622,1, -3, 0, -2, 0, -1, -1, 0
1503701492629,1, 1, 0, -2, -3, -3, -1, -3
1503701492637,-3, 3, 1, 1, 1, -2, 1, 1
1503701492652,0, 2, 2, -2, 0, -1, 0, 0
1503701492660,-7, 0, -1, -1, -3, -2, -1, -2
1503701492667,-3, -1, -1, -1, 2, 1, -1, 1
1503701492684,-4, -3, -1, -2, -3, 1, -2, 1
1503701492691,0, 1, 1, 0, 1, -2, 0, 0
1503701492697,0, -2, -2, -2, 3, 2, 0, -2
1503701492712,1, -1, -1, 0, 0, 1, -1, -1
1503701492719,0, -1, -1, -3, -4, -2, -2, -3
1503701492727,0, -1, -1, 0, -4, -2, 0, 1
1503701492742,0, -1, -2, -2, -4, -2, 0, 0
1503701492751,-3, -1, -3, -4, -24, -40, -40, -9
1503701492757,-2, 0, -1, -3, 2, -2, 1, 0
1503701492772,-1, 2, 1, -2, 2, 12, 8, 1
1503701492779,-7, -1, 1, -2, -12, 14, 62, 5
1503701492788,2, -2, -2, -1, 12, 15, 19, 3
1503701492802,9, 1, -1, 4, 12, 12, 3, 4
1503701492810,1, 0, 2, 2, 5, -1, -11, 0
1503701492818,4, -2, 0, -1, -12, -3, 0, -2
1503701492832,-1, -1, 0, 2, 4, 0, 3, 0
1503701492840,-3, -1, -2, 1, 10, -15, -73, -1
1503701492847,1, 2, 2, 4, 6, 7, 13, 8
1503701492862,-11, -4, -4, -2, -1, -2, 2, -2
1503701492870,-20, -1, -1, -2, -8, -22, -8, -4
1503701492877,-7, -9, -4, -3, -1, -10, -26, -43
1503701492892,-15, -7, -1, 0, -2, 3, 9, -21
1503701492899,-31, 2, -2, -1, 3, 0, 19, 11
1503701492907,36, 12, 1, 0, 0, 5, 6, 25
1503701492922,1, 1, 0, 1, -1, 2, 3, 12
1503701492930,-6, 3, 9, 1, -2, 2, -7, -4
1503701492937,12, 6, -2, -2, -1, 9, 12, 14
1503701492952,-5, 6, -1, -1, -2, -23, -8, -6
1503701492953,31, -4, 4, -1, -2, 2, -6, -7
1503701492959,-80, -9, -8, -3, -2, -3, -3, -12
1503701492961,11, 6, 7, 2, 1, -1, 4, 23
1503701492967,-20, -8, -13, -6, -5, 2, -23, -7
1503701492982,10, -9, 0, 0, 5, 3, 7, 7
1503701492996,51, 1, -8, -7, -3, -5, 13, 14
1503701492997,3, 1, 0, 1, 1, -3, -10, -3
1503701493013,13, 0, -1, 1, 2, 2, 6, -2
1503701493019,-37, 0, 4, 0, 0, -3, -1, 7
1503701493027,-25, 0, -2, 1, 2, 6, 4, -1
1503701493042,11, 27, 15, 5, -2, 2, 5, -6
1503701493049,-47, -40, -11, -7, -1, 3, -9, -23
1503701493050,-28, 6, 1, 2, 1, 2, 1, -4
1503701493057,-5, -8, 0, -1, -1, -3, -15, -19
1503701493071,-47, 3, -1, 0, 0, -2, 3, -22
1503701493079,-7, -4, -4, -3, -4, -44, -61, -32
1503701493087,-36, -34, -7, -5, 2, 4, 4, 25
1503701493102,13, -2, -2, 0, -2, -20, -9, -53
1503701493109,14, 4, 3, 1, 1, -5, 5, 7
1503701493116,-20, -13, 2, 0, 5, 5, -24, -8
1503701493117,1, -15, -8, -3, -2, 13, 9, 16
1503701493131,-23, 16, -3, -1, -4, -7, -60, -17
1503701493139,51, 8, -4, -1, -1, -63, -104, 27
1503701493147,-50, -6, 3, 2, 2, 10, 28, -1
1503701493162,30, -5, -5, -7, -2, 27, 44, 8
1503701493170,42, -23, -2, -1, -1, 20, 12, 6
1503701493177,6, -3, 0, 0, -4, -8, 25, 23
1503701493192,-8, 6, 0, -2, -4, 0, 4, -16
1503701493199,-76, -39, -7, -5, -4, 43, -24, 4
1503701493207,60, 5, 0, 1, 0, -7, 10, 47
1503701493224,42, 13, 1, 2, 2, 10, 33, 11
1503701493230,-39, -8, -9, -6, -6, -12, -16, 27
1503701493237,-15, 4, 1, 3, 0, 6, 21, -2
1503701493254,3, 12, -3, -5, -4, -5, 8, -17
1503701493259,-19, 24, 15, 5, 3, -1, 2, -80
1503701493267,2, -9, -4, -1, -2, -1, -5, -23
1503701493282,19, 5, 0, -2, -1, 4, 12, 9
1503701493292,20, 6, -3, -3, -2, -5, 4, -2
1503701493297,15, 35, 9, 6, 2, 2, 15, 32
1503701493311,0, -7, 10, 7, 2, 1, 0, -3
1503701493321,-15, -28, -17, -5, -2, 4, 10, 0
1503701493334,-3, 2, -3, 1, 0, -6, -9, -22
1503701493341,20, -1, -4, 0, -1, 1, 6, 29
1503701493358,-19, 7, 7, -1, 1, -2, 1, 24
1503701493363,11, 12, -15, -3, 2, -2, 2, -4
1503701493364,11, -32, 0, -3, -4, -3, -3, 2
1503701493372,12, 5, -10, -4, -2, 0, 3, -6
1503701493380,-52, -19, -28, -11, -3, 1, 5, -6
1503701493394,22, 16, 13, 6, 2, 1, -2, -8
1503701493401,-20, 3, 1, 0, 0, 2, -1, -2
1503701493402,2, -7, -8, -1, -2, 2, 1, 0
1503701493410,-2, -10, -6, -5, -3, -1, 2, 5
1503701493424,-11, 22, 28, 7, 2, 1, 0, 3
1503701493432,17, -15, -17, -5, -1, -5, -8, -46
1503701493440,7, 4, 15, 2, 2, 1, 6, 16
1503701493455,-3, -6, -8, 0, -3, 1, 5, 15
1503701493462,-3, 2, -2, -3, 0, -1, -1, -5
1503701493470,-6, 27, 44, 10, 3, 2, -1, -3
1503701493483,-8, -28, -12, -3, -2, -2, -1, -5
1503701493492,23, 6, -2, 3, 4, -1, 0, 6
1503701493499,-7, -9, 7, 0, 1, -1, -3, -9
1503701493514,-11, -6, -4, -4, -2, 2, -4, -21
1503701493522,34, 13, -12, -8, -27, -14, -1, 0
1503701493530,22, 9, 0, -2, 7, -2, 1, 17
1503701493543,-1, -4, -13, -33, 16, 15, 3, -10
1503701493552,15, -10, 3, 33, 40, -18, 2, 11
1503701493559,0, 5, -7, -21, -23, 2, 2, 11
1503701493560,-1, 13, 3, -2, 34, -11, 2, -10
1503701493574,-20, -4, -13, -19, -40, 14, 7, -10
1503701493582,-20, 9, 11, 93, 35, 20, 5, -3
1503701493590,-19, -10, -7, 7, 14, -1, -6, -3
1503701493603,8, 5, 7, -6, -27, -4, -4, 6
1503701493612,21, -28, -12, -7, -11, -2, -1, 4
1503701493619,-8, -3, -7, -7, -1, -5, -7, 0
1503701493634,9, -50, -22, -25, -22, -3, 0, -5
1503701493642,4, 34, 10, 1, 5, -1, -1, -5
1503701493650,-11, 20, 1, -5, -9, 2, -2, 3
1503701493664,10, -11, -3, -11, -9, -4, -4, -1
1503701493671,-7, 34, 7, 3, 4, -1, -3, -2
1503701493679,5, -10, -14, -20, -19, -4, -1, -6
1503701493696,-8, 27, 20, 6, 7, 1, 0, -9
1503701493702,-25, 22, 10, -11, -29, -5, -3, -4
1503701493710,-14, 3, 5, -1, 5, -1, -5, 0
1503701493723,9, -12, -10, -3, -49, 0, 1, 8
1503701493724,-1, -25, -20, -5, 37, 0, 2, 7
1503701493732,5, -9, -6, -19, -39, -9, -4, 1
1503701493739,-27, -11, -6, 1, -11, -8, -2, -1
1503701493756,-9, -9, -3, 27, 50, -3, 1, -3
1503701493762,16, 4, 4, -7, -24, 0, 0, 4
1503701493770,3, -3, -3, -11, -19, -4, -2, 3
1503701493784,-3, -15, -2, -1, -22, 0, 0, -2
1503701493793,2, 2, -8, -8, 18, 2, -1, 2
1503701493800,6, -1, 1, 26, 12, -3, -5, -2
1503701493814,-2, 2, 0, -9, 10, 5, -1, -9
1503701493824,11, 2, -1, -14, -6, -2, 2, 4
1503701493832,-10, -3, 1, 12, 3, 7, 1, 0
1503701493844,-3, 3, 1, 1, 22, -3, -1, -3
1503701493852,-8, -8, -5, -13, 48, 1, -3, -8
1503701493859,-23, -1, 0, 0, 3, 5, -2, -2
1503701493874,-17, 0, 1, -5, -5, -2, -1, 0
1503701493875,-7, 2, 1, -2, -17, -4, 3, 5
1503701493882,6, -11, -8, -7, 8, -3, -1, -1
1503701493892,-1, -1, -3, 1, -18, -1, 0, 9
1503701493904,4, 10, 15, -2, -12, 1, 0, 2
1503701493919,-10, 2, -8, -1, -19, -2, -1, 4
1503701493920,21, -5, -5, 2, -13, -3, 1, 6
1503701493935,5, -12, -4, -1, 2, 1, 3, 9
1503701493942,-5, -3, -7, -4, 2, 0, -3, -1
1503701493950,5, 26, 14, -1, -22, -1, -4, -8
1503701493964,4, 6, 0, -7, -11, 0, -3, -5
1503701493972,-1, -12, -2, 0, -3, -4, -9, -13
1503701493979,-2, -4, -10, -8, 8, -2, -4, -7
1503701493994,4, -3, -3, -6, -21, -5, -1, -7
1503701494001,2, -2, 1, 2, 4, 0, -3, -3
1503701494002,-7, -14, -6, 1, -3, 0, 0, -5
1503701494009,8, 11, 4, 4, 0, 0, 1, 5
1503701494025,-3, 2, 0, 3, 5, 0, 1, 2
1503701494033,2, 2, 3, -4, -19, 3, 1, 1
1503701494040,-3, 0, 0, 9, 1, -1, -1, -7
1503701494054,-3, -16, -6, -3, -5, -1, -1, 0
1503701494062,1, 5, 5, -4, -1, 0, 8, 9
1503701494070,-3, -4, -3, 9, 9, 0, 0, 1
1503701494083,-1, 4, 9, 2, 3, 0, -4, -3
1503701494092,-3, 1, 1, 2, 5, 0, 1, -4
1503701494100,2, -6, -5, -1, -3, 2, -1, 1
1503701494114,3, 5, -2, 0, -4, 0, -1, 0
1503701494121,-3, -15, -8, -4, -4, 0, -1, -4
1503701494130,20, 5, -3, 7, 17, 1, 0, 16
1503701494151,-3, 5, 7, -1, -10, -4, -1, -3
1503701494153,2, -8, 2, 6, -5, 0, 2, -2
1503701494159,-6, 8, 5, -1, 3, -2, 2, 1
1503701494174,-7, -13, 3, 1, 1, -3, -4, -16
1503701494182,3, 7, -10, -5, -6, 0, -4, -6
1503701494193,-2, 27, 27, 3, 3, 1, 3, 8
1503701494203,4, 3, -12, -6, 0, 0, -2, 0
1503701494212,-6, -13, 2, -5, -2, -2, 1, -5
1503701494219,-3, -3, -4, -1, 2, 0, -1, 5
1503701494234,-24, -11, -9, -5, -5, 0, 5, 2
1503701494242,9, 9, 0, 2, 9, 2, 0, 6
1503701494250,3, -13, -14, -9, -4, -2, -3, 4
1503701494264,2, 5, 11, 3, 31, 7, -2, 4
1503701494272,4, 13, 1, 1, 15, 2, 1, 2
1503701494279,-8, -23, -3, 1, 8, 10, -3, -8
1503701494294,5, 7, -5, -4, -7, -3, -6, -6
1503701494303,-10, -2, -1, -2, -7, -10, -1, -6
1503701494310,0, -6, -8, -5, -13, -2, -3, -6
1503701494326,1, 1, 4, 2, -4, -4, 2, 0
1503701494332,4, 6, 1, -2, 0, -1, 1, -2
1503701494346,3, -9, 0, 13, 30, 6, 0, 1
1503701494355,-10, 8, 6, 3, 4, 1, 2, 8
1503701494362,11, -5, -7, -10, -30, -11, -5, 8
1503701494377,-7, -1, -2, 0, -2, -3, -7, -11
1503701494383,-4, -3, -2, -4, -8, -5, -5, -11
1503701494395,9, 9, -3, -3, -2, -2, -1, -15
1503701494406,-6, 10, 3, -1, -11, -1, -4, -1
1503701494414,-3, -4, -3, 3, -3, -4, -3, 8
1503701494422,-4, -4, -3, -5, 0, 4, 0, -6
1503701494437,-4, -12, -12, -6, -3, 3, -2, 4
1503701494443,6, -3, -2, -7, -12, -3, 0, -5
1503701494451,-10, -22, -7, -3, 1, -2, 0, -5
1503701494466,3, 4, -5, -1, -5, -1, -2, -3
1503701494474,2, -10, -2, -1, -1, -1, -2, 2
1503701494482,-15, 2, 2, 4, -9, -4, 1, 15
1503701494497,5, 17, 10, 1, 1, 1, -1, -1
1503701494503,15, -16, -1, 1, 1, 0, 3, 24
1503701494511,-9, 5, -6, -1, 5, 4, 1, 3
1503701494527,0, 6, 3, 3, 0, -4, -5, -17
1503701494535,1, -5, 2, 3, -9, -5, 0, -7
1503701494541,-10, -1, 3, 6, 27, 1, -8, -31
1503701494564,-14, -5, -3, -3, -5, 1, 0, -14
1503701494572,10, -11, -6, -8, -8, -4, -1, 3
1503701494586,-6, -12, -1, -1, -3, 2, 1, 1
1503701494594,-2, 3, 7, -1, -7, -2, 0, 5
1503701494602,5, -5, -1, -1, -9, -3, 1, 6
1503701494617,-2, 3, 5, 1, 3, -2, -2, -11
1503701494623,-6, 0, -2, -2, -5, 0, 1, -1
1503701494632,21, 12, -8, -6, -4, 0, -3, -5
1503701494646,-5, 6, 1, -2, -3, 0, 0, -3
1503701494654,-17, 8, 7, -1, 0, -2, -6, -22
1503701494662,20, -7, -5, -4, 6, 7, 2, 10
1503701494676,-9, -10, -5, -2, 5, -2, -4, -10
1503701494684,-1, 2, 1, -1, -10, 0, 2, 5
1503701494692,-1, -5, 2, 7, 4, 5, -2, 0
1503701494706,-3, -5, -5, -2, -1, -2, 1, 4
1503701494714,-7, 0, 16, 0, 0, 2, 2, 9
1503701494722,15, 28, 16, 4, -1, 0, -2, 4
1503701494737,8, 0, -6, -4, 6, 1, 2, 8
1503701494743,-17, -6, -6, -5, -9, -6, -1, -1
1503701494751,-6, 0, -1, 0, -4, -1, -1, 2
1503701494774,4, 2, -1, -3, 17, 5, 1, -3
1503701494775,0, -9, -5, 3, -5, -6, -6, -7
1503701494782,-5, -4, -5, -1, -1, -4, -1, -6
1503701494797,6, -4, -8, -5, -2, -1, -2, 4
1503701494803,4, -20, 5, 3, 1, -1, -1, -2
1503701494812,-4, -5, -9, -2, -2, -2, 1, -3
1503701494830,-5, 16, -4, -4, -22, -7, 1, 8
1503701494835,-2, -1, -4, -4, -13, -6, 0, -5
1503701494842,6, 17, -4, 0, 2, 1, -4, -13
1503701494857,-4, -1, -2, 0, 11, 0, -1, 2
1503701494865,-1, -4, -7, -5, 2, 5, 1, 4
1503701494872,7, -6, -4, -2, -2, 1, 0, 2
1503701494886,6, 3, 3, -1, 3, -3, -3, 4
1503701494897,-11, -10, 0, -7, -11, 1, -2, -15
1503701494902,-3, -11, 1, 8, 9, 2, 3, 7
1503701494917,5, 4, 2, -3, -5, -5, -4, -13
1503701494923,-3, 1, -2, -6, -10, -5, 0, 7
1503701494932,2, 0, 2, -1, 2, 3, 2, 6
1503701494946,6, -3, 8, 3, 0, -2, -1, 0
1503701494954,-9, 6, 0, -2, 0, 0, 0, 6
1503701494962,-5, 2, -1, 2, 0, 0, -1, -3
1503701494977,-2, -2, 4, 4, 1, 0, -1, -3
1503701494983,2, 4, -5, -3, -6, 1, 0, 0
1503701494992,12, -6, -2, -1, 8, 0, -1, 3
1503701495006,-14, -5, -2, -9, -17, -2, -4, -7
1503701495014,-9, -4, 0, -2, -7, -2, 0, 8
1503701495022,5, -4, -6, -3, -6, -3, -4, -6
1503701495037,-4, -9, -8, -3, -4, -2, 1, 9
1503701495043,-9, 6, 3, 4, 7, 0, 1, -2
1503701495051,1, 14, 6, 9, 1, 1, 3, 0
1503701495066,-5, -5, -2, 0, 4, 1, 2, 1
1503701495074,1, 8, -5, -2, -1, 2, 1, 3
1503701495081,-11, -4, -2, 0, 7, 0, -2, -3
1503701495097,8, 1, 0, 2, -5, -1, -2, -5
1503701495103,-16, -18, -10, -4, -6, -3, -4, 0
1503701495111,-6, 6, 4, 4, -4, -3, -4, -8
1503701495126,10, -4, -1, -3, -5, -3, -1, -3
1503701495135,-3, 2, -3, -3, -10, -2, -1, -1
1503701495136,4, -5, -2, -5, 4, 1, 1, 6
1503701495141,6, 6, -6, -1, 1, -1, -1, -8
1503701495156,0, 8, -1, 2, -6, -2, 0, 2
1503701495157,-2, -4, 0, 0, 3, -3, -1, -1
1503701495164,7, 3, 2, 4, 5, 0, 0, -4
1503701495172,-1, 3, -2, -5, -4, -2, -1, -1
1503701495186,-8, 11, 18, 12, 9, 4, 1, 3
1503701495194,11, -4, 1, -9, -9, -3, -3, -10
1503701495202,13, 4, -9, -2, 0, -2, 0, -1
1503701495217,-21, -24, -6, -2, 3, 0, -2, 0
1503701495223,0, -1, -4, 1, -1, -1, -2, -1
1503701495232,-13, 11, -5, -4, 5, 0, -2, -4
1503701495246,-15, -2, 0, -2, -2, -2, 2, 0
1503701495254,6, 1, -2, 5, 1, -1, 1, 0
1503701495268,22, 5, 3, -5, -1, -1, -3, 3
1503701495276,-3, 5, -3, -2, 1, 1, 3, -1
1503701495283,-10, 5, -2, 3, 1, -1, -2, -6
1503701495299,3, -2, 8, 2, -1, -1, 0, 9
1503701495307,-30, -24, 5, 6, 0, 0, -1, -1
1503701495314,-7, 0, -7, 4, -1, 1, -1, 2
1503701495332,5, -2, 2, -1, -1, -2, -5, -9
1503701495340,-2, -2, 3, -1, -4, -3, -2, 1
1503701495352,1, -2, 0, -4, 1, -2, -1, 2
1503701495359,-7, 1, -8, 0, -3, -3, -3, -2
1503701495367,23, 18, 13, 3, -2, 0, 3, 5
1503701495374,-35, -3, -12, -16, -6, 1, 3, 12
1503701495389,-8, -9, 12, 9, 1, 0, -3, -6
1503701495399,9, -7, -5, -6, -2, 0, 2, 4
1503701495412,-12, -7, -7, -9, -4, -2, 1, -1
1503701495419,3, 4, 2, -2, 1, 0, 0, -6
1503701495427,5, 5, 6, -2, 3, 2, 0, 3
1503701495434,-3, 4, 2, 3, 2, -2, 0, -8
1503701495450,30, 17, -13, -9, -5, -3, -1, -21
1503701495456,18, 0, 12, 4, 3, -1, -3, 1
1503701495473,-31, -23, -20, -14, -11, -4, 1, 7
1503701495479,8, 4, 13, 17, 10, 4, -4, -11
1503701495487,-19, 3, 2, 4, 1, 1, 1, 3
1503701495494,-11, 1, -4, -8, -7, -4, -2, -6
1503701495509,2, 7, 2, 3, 3, 2, -1, 10
1503701495516,-5, -15, -13, 1, -4, -2, -1, 6
1503701495532,21, 3, -3, -4, -7, -4, -2, -4
1503701495540,10, -4, -7, -4, -7, -4, 1, -5
1503701495547,9, 0, 1, 6, 6, 2, 0, 2
1503701495554,-4, -6, -4, -1, 3, 2, -4, -15
1503701495571,-16, -4, 1, -6, -3, -2, 1, 3
1503701495576,12, -17, -23, -7, -6, -5, -2, 4
1503701495577,7, 20, 10, -2, 1, -1, 0, 14
1503701495592,4, -17, -9, -6, -7, -4, -5, -14
1503701495599,-5, -5, -1, 0, -2, 1, 1, -1
1503701495614,-8, 1, 7, 1, 4, 5, 4, 2
1503701495615,5, 5, 3, 1, 2, 1, 2, 4
1503701495629,8, 3, -4, -1, -4, -2, -1, 9
1503701495637,3, -4, -4, 4, -1, -5, -2, 2
1503701495652,-4, -5, -3, 0, -2, -1, 3, 6
1503701495659,7, 4, 8, 4, 5, 10, -1, -5
1503701495670,15, 11, -1, -3, 1, -2, 0, -5
1503701495675,-3, -27, -7, -9, 7, -2, 3, 8
1503701495690,22, 3, 10, 1, -1, 0, 1, 3
1503701495697,3, 8, 0, 3, 10, 5, -1, -6
1503701495712,-1, 0, -1, 17, 26, 10, -2, 0
1503701495719,7, 0, -2, -1, -9, -3, -1, -10
1503701495727,-13, 4, 2, -6, -11, -3, -3, 10
1503701495734,-8, -20, -8, -4, 0, -8, -1, -5
1503701495750,-12, -17, -6, -7, -7, -8, -3, 1
1503701495757,-4, 9, 3, 0, -7, -3, -2, -3
1503701495772,0, -3, -5, -5, 1, -2, -6, -23
1503701495779,-6, -12, -7, -8, -6, -3, -2, 2
1503701495787,-6, 7, 1, 2, 0, 2, 1, 1
1503701495794,5, 19, -3, -2, 12, 1, -1, -5
1503701495816,1, 5, 2, -3, -15, -1, -1, 5
1503701495817,-1, 2, 1, 1, -22, -1, -3, 1
1503701495834,-3, -3, 3, -2, -5, -1, -1, -2
1503701495839,0, 1, 1, -7, -10, -4, 0, 4
1503701495847,-1, -5, -5, 0, -4, 0, 1, -2
1503701495854,8, 11, 10, 12, 5, 1, -3, -7
1503701495870,-2, 1, 0, 1, 7, 12, 1, 6
1503701495876,-3, 3, 1, 4, 7, 1, 1, 6
1503701495892,-3, -7, -1, -3, -7, -12, -1, 1
1503701495901,-2, -4, -5, -2, -2, -1, 1, -3
1503701495907,0, 7, -1, -1, 1, 0, -2, -6
1503701495928,0, -3, 1, 2, 5, 1, 0, -5
1503701495930,2, -1, -3, 5, 4, -6, -2, -2
1503701495937,0, 3, -3, -4, -13, -2, -2, -6
1503701495952,1, 4, 1, 12, 9, 0, -1, 1
1503701495960,3, -7, -3, 0, 4, 0, 0, 13
1503701495968,-3, -4, -6, -11, -12, -5, 0, -2
1503701495974,1, -10, -4, -11, -7, -3, -3, 0
1503701495990,-20, -19, 6, -7, 20, -2, -4, -13
1503701495996,4, 1, 1, 2, 4, 3, 1, -7
1503701496012,8, 1, -4, -4, -18, -3, -1, -9
1503701496019,0, 9, 7, 2, 8, -1, -1, 7
1503701496027,7, 11, -4, -1, -5, 1, -1, -6
1503701496035,-1, -2, -7, -2, -6, 17, -1, 2
1503701496049,3, -3, -1, 8, 2, -3, 0, 12
1503701496056,-4, -5, -6, -8, -14, -10, 1, -6
1503701496072,3, 0, 3, 13, 27, 8, 0, 2
1503701496079,-2, -4, 0, -3, 1, 3, 1, 8
1503701496087,10, 9, 3, -5, -3, -8, 0, 4
1503701496094,-9, -6, -3, -1, 11, -6, 0, 1
1503701496110,-3, 0, -2, -5, -16, -4, -2, -3
1503701496116,21, 24, 5, 12, -2, 8, 1, 2
1503701496132,-3, -15, -6, -7, -1, 2, 0, 1
1503701496140,-13, -8, -4, -6, 2, -3, -4, -8
1503701496147,-29, -2, 4, 3, -4, 16, -1, -5
1503701496154,-19, -7, -1, 0, -8, -8, -2, -6
1503701496170,14, 2, -11, -14, -10, -11, -4, -3
1503701496177,18, -5, 6, 4, 1, -1, 0, -2
1503701496178,12, 6, 0, 3, 8, -7, -3, -2
1503701496192,10, 3, 4, 6, 22, 2, 3, 0
1503701496199,6, -6, -3, -15, -24, -8, -2, 4
1503701496207,9, 5, 1, 0, -6, 2, -2, -8
1503701496221,-14, -15, -4, -1, -2, 18, 0, 1
1503701496238,7, 6, 0, -1, -8, -13, 1, 5
1503701496239,-11, 0, 4, 5, 8, -15, -1, -6
1503701496252,-2, -9, -2, -2, -2, 4, -1, 1
1503701496259,16, 7, -1, -1, -2, 14, 1, 0
1503701496269,-17, -13, -7, -5, -2, -10, -1, -6
1503701496282,-17, 4, 3, 5, 8, -7, 1, 0
1503701496289,19, 5, 0, -1, -8, -1, -3, 1
1503701496296,14, -9, -5, -3, -2, 1, 1, 1
1503701496313,-16, -16, -4, -1, 1, 2, -2, -7
1503701496319,0, 6, -1, -4, -1, -2, 0, -5
1503701496327,12, 6, 2, 1, 1, 1, -1, 0
1503701496341,-1, -24, -8, -3, -1, -2, 1, -2
1503701496349,-9, 0, 3, 2, 5, 3, -1, -2
1503701496356,-15, 7, 6, 4, -3, -2, -2, -4
1503701496372,12, -6, -4, -5, -2, -4, 0, 11
1503701496379,-1, 14, 3, 2, -4, -3, -3, 6
1503701496388,-10, 4, 2, -1, 10, 3, -1, 2
1503701496404,12, -5, -3, -4, -15, 0, -1, -1
1503701496410,2, -11, -1, 4, 3, -10, -4, -5
1503701496416,6, -6, -9, -7, -3, -8, -3, -5
1503701496432,5, -15, -10, -2, 4, 7, -2, -6
1503701496440,7, -7, -9, -3, 3, -8, 0, 0
1503701496447,-15, 14, 2, -3, -5, -6, 1, 4
1503701496461,17, 5, 1, 0, 1, 2, 1, 3
1503701496471,4, 14, 8, 5, 3, 6, -1, 0
1503701496476,-8, -6, -1, -2, 2, -1, -1, -3
1503701496491,0, 0, -7, -5, -12, 2, 1, 1
1503701496499,-9, -2, -2, -6, 7, -2, 0, -4
1503701496507,-4, 10, -1, 0, -2, 4, -2, -3
1503701496521,-13, 3, 1, 4, 20, 11, 1, -6
1503701496529,8, -10, -6, -2, -6, -3, 1, -1
1503701496538,0, -1, -4, 0, -5, -4, -5, -8
1503701496551,5, -2, -4, -8, -15, -8, -2, -2
1503701496559,-12, 2, 4, 4, 5, 2, 1, 3
1503701496567,-10, 2, 6, 0, 6, -1, -1, 2
1503701496582,-2, 10, 12, 2, -4, -2, 0, 3
1503701496590,1, 0, 7, 2, -6, -4, -1, -1
1503701496596,2, -7, -4, 2, -1, -2, -1, 0
1503701496612,4, 8, -4, 1, 9, 0, -2, -5
1503701496619,-12, -2, -4, -5, -7, -2, 0, -2
1503701496627,4, -4, 1, 0, -13, -1, -2, 5
1503701496642,19, 4, 2, 0, 5, 9, 1, 0
1503701496649,0, -16, -5, -5, -2, -1, 1, 1
1503701496656,-2, -4, -5, 5, -5, -3, -1, -2
1503701496672,-7, 1, -1, 2, -1, 1, 0, -3
1503701496679,0, -3, -1, -4, -3, -6, -2, -1
1503701496687,-3, 3, 11, 7, 12, 6, 2, 0
1503701496702,-6, 0, -1, -1, -1, 2, -1, 2
1503701496710,-13, -1, -3, 0, -8, -3, -2, -9
1503701496717,3, 4, 3, -2, 1, 15, -2, 0
1503701496732,-10, 0, -3, 1, 3, -2, -3, -3
1503701496739,36, -1, -11, -4, -7, -23, -2, 3
1503701496747,-3, 2, -2, -2, -4, -8, 2, 6
1503701496762,-8, -3, 1, 7, 15, 1, -1, -8
1503701496772,-11, -8, -2, 1, 11, 7, -1, -2
1503701496777,-1, 15, 4, -1, -9, -8, 0, 1
1503701496791,-15, 1, -6, -4, -2, -2, 4, -6
1503701496799,-2, 18, 2, -2, -4, -6, 0, 5
1503701496808,9, 0, 4, 5, 17, 31, 10, -4
1503701496822,5, 15, 3, 5, -2, 1, -3, 1
1503701496830,-22, -17, -4, -7, -5, -8, -2, 6
1503701496839,22, 22, 5, 4, 11, 5, -1, 0
1503701496852,15, 2, 1, -3, 6, -7, -2, 2
1503701496859,13, -3, 4, 2, -6, -5, -8, -22
1503701496867,-6, -9, -6, -3, -7, -4, -3, 1
1503701496882,-15, 1, -1, -2, 5, 1, 2, 5
1503701496889,8, -12, -11, -6, -15, -9, -9, -16
1503701496896,-42, -45, -6, 0, 4, 6, 4, -3
1503701496912,23, 2, -1, -3, -10, -7, -3, 5
1503701496919,4, 13, -3, -6, -4, -1, 8, 1
1503701496927,-3, -2, 1, -2, 2, 2, -3, -5
1503701496943,-1, -5, 4, -3, -8, 13, 4, 11
1503701496949,-15, -2, -9, -4, 13, -1, 2, -3
1503701496950,11, 7, -1, 7, 7, 13, 5, 0
1503701496956,-7, -6, -2, -4, -2, -1, 1, 3
1503701496977,-11, 1, -1, 0, -3, -5, -3, 3
1503701496979,-2, 11, 6, 0, -2, -8, -6, -4
1503701496987,8, 0, -4, -2, -3, -1, -2, 6
1503701497001,-12, -23, -12, -6, -1, 5, 0, 1
1503701497002,4, 7, -10, -4, 2, -3, -3, -2
1503701497010,-11, 16, 6, 4, 25, 4, 4, 12
1503701497016,-17, -20, -4, -1, -11, -5, -1, 5
1503701497032,-4, 1, 6, 8, 11, 0, 4, -4
1503701497040,-3, -7, 1, 4, -14, 3, -3, 9
1503701497048,-13, -2, -3, -4, -10, 1, 3, 1
1503701497061,12, 9, 6, -2, 23, 7, 3, 3
1503701497076,-14, -22, -5, -3, -15, -2, -7, -3
1503701497078,-13, -41, -7, -7, -14, -8, -3, -3
1503701497092,35, 27, 2, -11, -24, -5, 0, 5
1503701497099,18, -6, 0, 4, -3, 3, 0, 0
1503701497107,9, 4, 3, -4, -5, 7, 0, -5
1503701497122,-40, -9, -4, 5, 26, 0, 4, -6
1503701497129,4, 24, -1, -15, -17, -30, -1, 3
1503701497144,11, 6, 3, 4, 0, -4, -5, -10
1503701497152,-16, -11, 0, -2, -4, -10, -2, -1
1503701497159,5, -5, -6, -5, -12, -6, -2, -7
1503701497175,-23, -14, -6, 4, 2, 2, -5, -21
1503701497182,11, 3, 1, -3, -4, -8, -4, 8
1503701497197,-20, -18, -1, 27, 83, 10, -7, 9
1503701497204,-26, -2, -1, -8, -5, 5, 6, -1
1503701497212,-5, 4, -1, 17, 59, 16, 3, 7
1503701497219,33, 14, 5, 0, -2, 6, -12, -6
1503701497234,13, 1, 0, 14, 42, 4, 5, -2
1503701497242,19, 7, -5, -24, -7, -3, 13, 4
1503701497250,31, 17, 1, -21, -52, -7, 27, -4
1503701497264,-20, -12, 6, 31, 45, 17, -3, 13
1503701497275,-2, -5, 3, -10, -25, -7, -14, 2
1503701497279,-31, -13, -2, -2, 7, -2, -18, -6
1503701497294,17, 3, 0, 10, 32, 7, -13, -4
1503701497301,-17, -11, -2, -5, -23, -8, 15, -1
1503701497309,13, 2, -7, -15, -52, -6, -7, -5
1503701497324,-10, 0, 2, 8, 13, 0, 3, 11
1503701497332,-2, -19, -2, -11, -39, -10, -10, 0
1503701497341,7, 3, -2, 8, 13, -3, 5, 1
1503701497354,34, 47, 3, -6, -17, -16, 0, -9
1503701497361,5, 1, -8, -9, -21, -11, -8, -4
1503701497370,-28, -29, -2, 8, 4, 4, 1, -1
1503701497384,3, 9, -2, -6, -20, -7, -5, -1
1503701497392,-7, 10, -1, -10, -55, -11, 7, 3
1503701497399,-9, -7, -1, 3, 27, 15, 9, 4
1503701497414,-7, -3, -4, -10, -8, -3, -3, -8
1503701497421,20, 12, -2, -6, -9, -4, -4, -6
1503701497429,-12, 6, 5, -4, 3, 3, -3, 4
1503701497430,10, -12, 2, 6, 9, 28, 1, -13
1503701497444,-12, -20, 0, 2, -9, -6, 0, -6
1503701497452,-34, -6, 17, 8, 10, -4, 3, 27
1503701497459,10, 15, -6, -7, -10, -10, -6, -18
1503701497475,-19, -16, 4, 8, 12, 1, 0, 7
1503701497482,-38, -20, 10, 6, 2, 4, 5, 5
1503701497489,16, 18, -9, -5, -4, -1, -3, -11
1503701497504,25, 5, 0, 1, -6, -2, -3, -7
1503701497512,3, -13, -3, -3, -2, 0, -4, -4
1503701497519,18, 16, -5, -2, -6, -6, -4, 5
1503701497534,-7, -13, 2, -2, 1, 12, 5, -1
1503701497542,2, 4, 3, -8, -16, -3, -1, -2
1503701497549,-10, -14, -11, -8, -9, -2, -7, -20
1503701497564,18, 5, -5, -3, -6, -5, -3, 1
1503701497572,18, 15, -5, -6, -8, -4, -3, 0
1503701497579,1, -3, 7, 4, 6, 5, -5, -10
1503701497594,-11, -5, 1, -2, -1, -7, -2, 2
1503701497601,-5, -13, -6, -3, 9, 6, -2, -2
1503701497610,8, 6, -2, 1, -5, -8, -2, 7
1503701497624,-9, 0, 4, 10, 8, 2, -4, -8
1503701497632,8, 8, -2, -4, -5, -2, 0, -4
1503701497639,-5, -9, -9, -12, -15, -6, -5, -10
1503701497654,-11, 6, 4, 9, 15, 6, 4, 12
1503701497661,-1, 2, -4, -1, 1, 2, 6, 13
1503701497669,-8, -6, 1, 0, -5, -3, -4, -6
1503701497684,2, -1, -4, -1, 6, 1, 0, 9
1503701497692,-8, -8, -2, -5, -3, -3, -2, -4
1503701497699,6, 9, -2, -1, -8, 1, 2, 2
1503701497714,-5, 6, 5, -3, 0, 1, -6, -12
1503701497721,-11, -5, -2, -3, -2, -2, -2, -4
1503701497729,-4, 0, -2, -6, -8, -5, -1, 3
1503701497745,-1, 8, 1, 2, -2, 1, 0, -2
1503701497752,20, 1, -4, 0, 4, -1, 0, 1
1503701497759,13, -7, -1, 4, -10, 0, 1, 1
1503701497777,-3, -25, -4, 3, 9, 1, 0, 2
1503701497782,-9, 6, 2, 16, 14, 3, -2, -2
1503701497789,-6, 7, -3, -1, 1, 2, -3, -6
1503701497804,-9, -12, 0, -4, -2, 0, 1, 0
1503701497813,-6, 0, 0, 5, -5, -2, 2, 6
1503701497819,10, 5, 7, -3, -4, -2, -5, -6
1503701497834,-1, 2, 5, 14, 3, 4, -3, 1
1503701497844,7, 0, -5, -3, -3, 3, 1, 1
1503701497849,-11, -13, -2, -3, -5, -5, -1, 0
1503701497850,2, -8, -6, -11, -8, -16, -1, -9
1503701497864,-5, 1, 6, -1, 0, -2, -4, -4
1503701497872,-1, 3, -4, -3, -13, -5, 0, 3
1503701497879,3, -2, -9, -14, -7, -4, -2, 0
1503701497894,1, 8, 11, 1, 5, 3, -1, 1
1503701497901,-2, 0, -2, -5, -6, -1, 1, -1
1503701497916,0, 3, -3, -1, 5, 4, -1, -3
1503701497924,5, 10, 5, 2, -2, -4, -1, 4
1503701497932,0, 6, 1, -8, 5, 1, -1, 1
1503701497939,-6, -3, -5, -4, -7, -3, 0, 1
1503701497954,7, 0, 1, 19, 24, 5, 1, 0
1503701497961,-3, -2, -2, -3, 0, -2, -5, -1
1503701497970,0, 3, -1, -3, 0, -2, -1, 0
1503701497984,2, 2, -2, 0, 3, 2, 3, 1
1503701497992,-5, -10, -5, -8, -11, -3, -2, 1
1503701497999,-3, -5, -5, -8, -2, -2, 1, -1
1503701498014,-3, -2, -2, -13, -4, 1, 0, 1
1503701498021,-4, -7, -2, 0, 5, 0, -2, -10
1503701498029,-2, 2, -2, 4, -8, -2, 1, -6
1503701498045,-29, -3, 0, 2, 5, 1, -2, -6
1503701498053,6, 7, 2, -3, -3, -2, -2, 0
1503701498066,-15, -15, -3, 0, -3, -2, 0, 1
1503701498074,-6, -4, 0, -1, 3, -1, -1, -1
1503701498082,-14, -3, -5, 3, -4, -1, -7, -12
1503701498096,-5, -17, -4, 2, 13, 3, 0, 3
1503701498104,-2, -6, -3, -8, -8, -3, 0, 7
1503701498115,-5, -4, -6, -5, -5, -1, -3, 3
1503701498126,15, 10, 14, 0, 3, -1, 1, 4
1503701498134,-2, 3, 4, 2, 3, 0, -1, 2
1503701498141,19, 4, -4, 4, 3, 0, -2, -4
1503701498156,-9, 1, 1, 3, -1, -2, 2, 3
1503701498164,23, 5, -7, -5, -5, -3, 0, -3
1503701498172,-19, -5, 2, -7, -2, 2, -2, -7
1503701498186,19, 20, 2, 0, 5, 0, -1, 9
1503701498194,6, 8, 0, 2, -4, -3, 1, 4
1503701498201,14, 3, -3, -2, -2, 0, -1, 3
1503701498216,17, 10, 4, 4, 4, 4, -1, -3
1503701498224,0, -7, -1, 5, -1, -1, -1, -7
1503701498232,3, 0, -2, 4, -3, -1, -2, -7
1503701498246,-12, -10, -9, -6, 1, -1, 0, -2
1503701498255,-1, 0, -2, -11, -19, -2, -1, -6
1503701498261,-4, 0, 4, 3, 4, 0, 1, 7
1503701498278,21, -3, -7, -3, -5, -3, -3, -9
1503701498284,-17, -3, 8, 2, 16, 2, 0, 21
1503701498292,-12, -16, 0, 3, 9, 2, -2, 5
1503701498306,1, -11, -7, -6, -13, -5, -3, -9
1503701498314,5, 11, 0, 1, 5, 1, -2, 1
1503701498321,-3, 3, -3, -4, -7, -2, 1, 2
1503701498336,-3, -13, -10, -5, -3, -2, -2, -10
1503701498346,12, 12, 6, 4, 1, 2, 3, 6
1503701498352,-1, 1, -2, -5, -10, -6, 0, 10
1503701498366,-12, -11, -8, -6, -10, -5, -3, 15
1503701498374,4, 0, 1, -1, 2, 0, 0, 1
1503701498382,14, 1, -1, 0, -3, 12, -2, -28
1503701498397,9, 0, 3, 1, 2, -4, -2, -19
1503701498404,-17, -2, 5, 5, 3, -10, 1, 6
1503701498414,15, 5, 4, 11, 8, 10, -1, -15
1503701498433,2, -8, -7, -4, -7, -5, -4, -7
1503701498435,-14, -7, -5, -9, -7, -7, -1, 10
1503701498441,18, 17, 17, 15, 18, 13, 2, -17
1503701498442,-10, -6, 2, 2, 2, 3, 0, -8
1503701498457,-6, 0, -5, -6, -5, 3, -4, 8
1503701498464,18, 6, -1, -2, 6, 0, 0, 3
1503701498480,-7, -1, 0, -1, 0, -7, -3, -13
1503701498486,-1, 0, 3, 3, 1, 4, 0, -8
1503701498494,7, 3, 2, 2, 6, -1, 1, 1
1503701498501,0, 0, 0, 0, 2, -4, 0, -11
1503701498517,-1, -1, 2, 1, 2, -1, 0, 6
1503701498524,-5, -5, -1, -1, -3, 0, -1, 9
1503701498539,1, 18, 6, 0, 0, 2, 1, 3
1503701498547,-3, -1, -3, -1, -5, -2, -2, -2
1503701498554,-18, -11, -3, 0, 7, 1, -1, 7
1503701498561,0, -4, -1, -1, -3, -1, 0, 7
1503701498576,-2, 7, -1, -3, 0, 1, 0, 0
1503701498584,-3, -2, -1, -1, -1, -4, -3, -4
1503701498599,-11, -20, -8, -5, -9, -3, 0, 1
1503701498605,4, 16, 8, 1, 1, 2, -2, -14
1503701498614,14, 1, -2, -1, -4, 0, 2, -1
1503701498621,-3, 1, 2, -2, 1, -1, 0, -1
1503701498636,0, 1, 1, 2, 8, 1, 0, 3
1503701498644,-6, -3, 0, 4, 16, 3, 2, 8
1503701498652,-24, -10, -1, -2, -1, -3, -4, -7
1503701498666,-9, -5, -1, 9, 6, 2, 1, 3
1503701498674,-4, -2, -1, -2, -4, -2, 0, 3
1503701498682,-2, -1, 2, -1, -7, -2, -4, -1
1503701498696,3, 5, 2, 1, -4, -1, 2, -4
1503701498704,-12, 6, -1, 0, 3, -1, -1, -3
1503701498714,6, 4, 4, 8, -8, 1, 1, 3
1503701498726,-14, -14, -7, -3, -3, 0, 0, -1
1503701498734,12, 0, -3, 10, 28, 1, -1, 1
1503701498741,8, 0, -2, -3, -7, -2, 0, -6
1503701498756,4, 2, -1, -4, -10, -3, 1, -10
1503701498764,18, 2, 2, 24, 29, 2, 1, 8
1503701498772,33, 10, -1, -4, 2, -2, -2, 16
1503701498786,-1, -3, -4, -5, -25, -8, -4, 15
1503701498794,-27, -14, -2, -6, -10, -3, -1, -8
1503701498801,-3, -4, -5, -21, -29, -11, -3, -17
1503701498816,-5, -2, -2, -6, 4, -1, -1, -6
1503701498824,3, -4, -1, -3, -3, 3, -2, -5
1503701498832,18, -1, 1, 0, -7, 0, -2, 0
1503701498849,16, 14, 2, 2, 5, 4, 0, 9
1503701498854,-25, 3, 0, -4, -14, -4, -1, -3
1503701498861,3, -6, -3, -4, 1, -1, 0, -7
1503701498876,-3, -2, 1, 1, -11, 0, -2, -7
1503701498884,-6, 1, -1, -6, -2, 0, -2, -5
1503701498892,-16, -3, -1, 3, 6, -5, -1, -5
1503701498906,-2, -3, -3, -12, -5, -2, 0, -1
1503701498916,-7, 3, 0, -3, 4, -1, -1, 2
1503701498921,3, 0, -3, 0, 6, 1, 0, 2
1503701498922,-20, -9, -3, -7, -23, -2, 1, -2
1503701498936,21, -6, 2, 7, 11, 5, -1, -3
1503701498944,13, 10, 5, 3, 2, -1, -1, 1
1503701498953,22, -17, -4, -7, -9, 1, 0, 0
1503701498966,5, 7, 1, 1, 5, 3, -2, -2
1503701498974,-7, -6, -1, -4, -2, -4, 0, -1
1503701498988,-12, -9, -4, 2, 7, 0, -1, -5
1503701498996,-8, 5, -4, -5, -5, 0, 1, 3
1503701499004,9, 5, 5, 10, 10, 1, -3, -1
1503701499019,-12, 0, -3, 0, 0, -1, -2, -1
1503701499026,9, 2, -4, -3, -2, -1, 2, 3
1503701499034,-8, 7, 2, 1, 0, 0, 0, 0
1503701499049,4, 0, -2, 1, -2, -2, 0, 3
1503701499050,-11, -4, 0, -1, 0, 2, 0, 4
1503701499057,-5, 3, -2, 0, 1, 0, -1, -4
1503701499064,7, -2, 7, 3, 1, 0, 0, 2
1503701499079,2, -3, -3, -3, -2, 1, -2, -1
1503701499086,-15, -1, -2, 2, 3, 2, 0, 0
1503701499094,-3, 4, 1, 3, 1, -1, -2, 3
1503701499108,4, -8, -4, -1, 4, 0, 1, -1
1503701499116,1, 0, -11, -6, -2, -2, 3, 19
1503701499125,2, -2, -3, -4, -4, -1, 0, 3
1503701499139,27, 7, 11, 1, -2, 2, 2, 4
1503701499146,-4, 6, 1, -1, -1, -1, 1, -4
1503701499155,13, 22, 10, 2, 2, -3, -3, -5
1503701499168,6, -4, -5, -8, -4, -4, -4, -2
1503701499176,0, -4, 6, 4, 1, 0, -1, -2
1503701499184,-21, -1, -1, 1, -1, -2, -4, -2
1503701499199,-15, -8, -3, -1, 1, 0, 1, -7
1503701499206,-31, -17, -6, -1, 0, 0, -3, 9
1503701499217,-35, 5, 3, 1, 3, 0, -3, -4
1503701499228,7, -7, -8, -5, -4, 0, 2, -3
1503701499236,3, -14, -7, 0, -2, -1, -1, -5
1503701499244,24, 15, 10, 2, 2, 1, 0, -2
1503701499259,-4, -20, -8, -4, -3, -4, 0, -15
1503701499266,31, 37, 9, 2, 0, 0, 1, -2
1503701499274,-16, -24, -18, -2, -1, 0, 0, 9
1503701499288,-9, -17, -12, -2, -1, -2, -1, -2
1503701499296,16, 4, 2, 0, -1, -1, -2, 9
1503701499304,-8, 5, 3, -1, 0, -2, 0, -3
1503701499319,-4, -6, -2, -4, -2, -1, 0, -2
1503701499326,-10, -6, 3, 0, -2, 1, -2, -7
1503701499334,0, 10, 4, 0, -2, 1, -2, -8
1503701499350,-4, 1, 0, -3, -2, -2, -2, 0
1503701499356,20, 0, 0, -1, 0, 0, -1, 3
1503701499364,-3, -13, 2, 0, 0, 0, -2, 0
1503701499379,15, 12, 5, 1, -1, 0, 1, 0
1503701499386,6, 3, -7, -2, -1, 1, 1, 5
1503701499394,-8, 2, -4, 2, 3, 0, -2, -1
1503701499408,-17, -4, 2, 0, 0, -1, 0, -9
1503701499419,-22, -3, -4, -3, -2, -2, -2, -8
1503701499424,0, 1, -5, 1, -2, -1, -2, 0
1503701499439,24, 12, 6, 0, 0, -1, -2, 4
1503701499446,0, -4, -7, -4, -3, -1, -1, 1
1503701499455,1, -13, -4, -4, -1, -2, -2, -3
1503701499468,14, -6, -7, -3, -2, -3, 0, -3
1503701499476,-2, 7, 14, 4, 2, 2, 0, -1
1503701499485,-9, 6, -3, -2, 0, -2, -1, 1
1503701499499,-18, -31, -11, -4, -2, -1, 0, -2
1503701499506,-56, -28, 1, 2, 1, 2, 0, 1
1503701499514,34, 22, -8, -6, -3, -5, -3, 1
1503701499528,24, -10, -1, 1, 15, 4, 0, -3
1503701499536,0, 14, 4, 5, 4, 3, 0, 0
1503701499544,8, 15, 1, -2, -7, -4, -3, -2
1503701499559,-12, -10, -3, -2, -2, -1, 1, -2
1503701499566,-12, 16, 18, 3, -1, -2, -3, -4
1503701499574,-6, 0, 9, 0, -3, 0, -2, -20
1503701499588,-21, 5, -4, -2, -4, -2, -2, -6
1503701499596,-10, -4, -9, -3, -1, 0, 1, 12
1503701499604,6, 1, 9, 3, 3, 5, -1, -2
1503701499619,-7, -4, -2, 0, -1, 1, 0, 5
1503701499627,8, 1, -11, -4, -6, -5, -1, 6
1503701499634,-4, -6, 0, 1, 2, -1, 0, 1
1503701499648,47, -10, -9, -2, -3, -1, 0, 2
1503701499656,11, 2, -2, -3, -2, 5, 3, -2
1503701499664,-12, -3, -1, -4, 8, -1, -2, 0
1503701499679,22, 3, 0, -3, -1, -7, -22, 9
1503701499687,9, -5, -9, -3, -1, 1, 0, 3
1503701499702,-23, -10, -5, 0, -1, 1, 6, -2
1503701499708,8, -3, -2, -3, -4, -4, -2, -6
1503701499716,-4, -9, -4, -2, 0, 1, 2, -1
1503701499724,7, 10, 10, 7, 2, -1, 1, 0
1503701499739,2, 6, 3, -1, 13, 1, 2, 1
1503701499746,-18, -23, -3, -1, -4, 1, -6, -14
1503701499754,-5, 1, -4, -4, -9, -2, 7, -8
1503701499768,10, 8, 0, -3, -18, 9, 8, 3
1503701499776,22, 8, -1, 0, 7, -20, -3, -2
1503701499784,-12, 2, -1, -4, 11, 5, 13, 0
1503701499799,-5, -2, 0, -1, -16, 2, 0, -4
1503701499806,-14, -6, -4, -2, -5, -2, -6, 1
1503701499814,12, -8, -3, -3, 1, -2, -3, -2
1503701499829,8, 0, 1, 3, -2, -7, -3, -1
1503701499836,-13, -3, -2, 1, -5, 0, -4, -12
1503701499844,-57, -22, -6, -1, 4, -5, -5, -6
1503701499859,-1, 6, 1, 0, -3, 3, -1, 2
1503701499866,-5, 9, 0, -1, 1, -3, -3, -10
1503701499874,-6, 11, 13, 2, -3, 1, 2, -2
1503701499896,17, -20, 0, 2, -6, -4, -3, 2
1503701499897,-14, -14, -7, -1, -1, 4, 5, 31
1503701499904,-20, 4, 3, 4, -1, -1, 1, -1
1503701499923,-10, -43, -13, -4, 2, -2, -2, -7
1503701499927,-3, 3, -9, -5, -3, -2, -2, -2
1503701499942,-7, 11, 11, 6, 6, 1, -4, -7
1503701499948,19, 16, 3, 3, 5, 0, -1, -7
1503701499956,34, 23, -7, -6, -4, 0, -3, -14
1503701499971,2, -10, -6, -2, 0, -1, -1, 9
1503701499979,-11, -8, -1, -2, -2, -2, 0, 0
1503701499991,11, 10, -1, -2, -1, 6, 2, 7
1503701500001,-3, 5, 0, 2, -3, 0, -1, -3
1503701500008,0, 7, 4, 0, -5, -4, -3, 2
1503701500016,2, 11, 2, 1, 0, -5, -1, 7
1503701500031,33, 7, 2, -1, -2, -2, -2, 1
1503701500039,14, -2, -8, -5, -1, -3, -2, -4
1503701500046,22, 20, 12, 3, 3, -1, 2, 7
1503701500062,13, -11, 14, 3, 2, 3, 3, 12
1503701500068,6, 6, -3, 1, 0, 2, 1, 0
1503701500076,-5, -2, -3, 1, -4, -1, 0, 0
1503701500091,-16, 0, 3, -4, -5, -4, -4, -8
1503701500099,-27, -14, -5, -1, 13, 5, 3, 2
1503701500106,-18, -10, -8, -5, -9, -5, 0, 0
1503701500121,5, 6, 0, -3, -8, -4, -2, -3
1503701500128,10, 0, 3, 3, 8, 3, -1, -10
1503701500136,-21, 5, -4, 0, -2, -2, 0, -1
1503701500151,-13, -10, -5, -2, 8, 0, 1, 3
1503701500159,-6, 1, 0, 0, -2, 0, -4, -10
1503701500166,-1, 2, -2, -2, 0, 2, 0, 1
1503701500181,-6, 2, -3, -7, -1, -2, -1, -2
1503701500188,7, 2, -3, -3, -10, -6, 0, 3
1503701500204,12, 12, -1, -2, -5, -4, -6, -4
1503701500210,6, 2, -1, -4, -4, -5, -5, -21
1503701500219,-3, 4, 4, 3, 3, 1, -1, 4
1503701500226,0, 2, -5, -3, -4, -1, -2, 3
1503701500243,2, -6, -5, -1, -1, 0, -1, 0
1503701500248,0, -7, -6, -1, 2, 1, 0, 5
1503701500256,14, 7, -7, -2, -1, -1, 3, 9
1503701500271,-5, -9, 1, 0, 1, -2, -3, 0
1503701500279,-4, -12, -2, -4, -6, -3, -3, -2
1503701500286,-4, 0, 0, 3, 15, 2, -2, 5
1503701500301,4, 2, -4, -4, 0, -1, 2, 1
1503701500308,1, -5, -5, 2, 2, 0, 0, 2
1503701500316,-5, 6, -1, 3, 5, 2, -2, -4
1503701500332,-19, -24, 1, -4, -3, 1, 1, 1
1503701500339,-3, -17, -3, -1, -2, -2, 0, -7
1503701500346,-14, 1, 1, -4, -2, 0, 0, 1
1503701500361,7, 14, 1, 2, 4, 0, -2, -6
1503701500368,0, -10, -1, -1, -1, -1, -2, -4
1503701500376,3, 2, 2, -4, -5, -6, 0, 6
1503701500391,4, 0, -1, -4, 10, 1, -2, -1
1503701500399,-2, -1, 3, 1, -21, 3, 1, 3
1503701500406,-2, 3, -4, 3, -7, 2, 0, 1
1503701500423,-4, 8, 5, -1, 8, -2, -3, -6
1503701500428,-1, 17, -6, -2, -7, -4, 0, -8
1503701500436,-4, -7, -7, -1, -2, 0, 1, 5
1503701500451,6, 0, -5, 1, 3, -3, -3, -3
1503701500459,-9, -5, -3, -5, 0, -2, -1, 9
1503701500466,0, 7, 11, 6, -11, 1, 3, 8
1503701500482,-12, -7, 4, -4, 4, 0, -4, -7
1503701500490,17, -3, 4, -11, -17, -1, 0, 2
1503701500496,-7, -2, -4, 11, 20, 5, 1, -3
1503701500510,4, -4, -6, 4, 2, 0, -1, 2
1503701500519,2, 2, 0, -4, -8, -3, 2, -2
1503701500527,0, 1, 0, 8, 1, 0, -4, -3
1503701500541,-4, -1, -5, 0, -3, 0, -1, -3
1503701500548,2, 6, -7, -3, 7, 0, -2, -2
1503701500557,1, 5, 5, 0, 3, 0, 0, 3
1503701500571,-18, 1, 15, 5, 6, 0, 1, -4
1503701500579,6, 3, 0, -8, -7, -2, -1, 0
1503701500586,-5, -6, -3, -10, 0, -2, -1, -1
1503701500601,-4, -5, -2, -3, -2, 0, -2, 1
1503701500609,1, -2, -6, -5, -10, 0, 1, 5
1503701500616,8, -18, -16, -7, 3, -1, -4, -22
1503701500632,-9, -7, -2, -2, 1, -1, 1, 6
1503701500633,-5, 19, 14, 5, 2, -2, 1, 6
1503701500639,3, -5, -6, 1, 1, -4, 0, 2
1503701500654,4, 8, 16, 8, 5, -2, -4, -5
1503701500662,-6, 6, 10, 4, 4, 0, 2, 5
1503701500669,11, -7, -17, -5, -8, -3, -4, -9
1503701500676,-2, 1, 3, 2, -5, -1, 0, 7
1503701500693,-9, -8, -1, -1, 1, -2, 2, 5
1503701500700,-10, -9, -3, 0, -7, -3, -3, -6
1503701500714,-3, 5, 1, -7, 2, 0, 0, 1
1503701500721,1, 11, 7, 8, 9, 1, 0, -1
1503701500729,-4, 4, 1, -5, -16, 1, 0, 14
1503701500730,3, -12, -9, 2, 7, -1, 1, -3
1503701500736,4, 4, 1, 0, -9, 1, -1, -11
1503701500752,-2, -12, -11, -8, -7, -2, 0, 6
1503701500759,5, -16, -4, -6, -1, 1, 1, 3
1503701500760,-16, 12, 0, 3, 0, -3, 1, 3
1503701500774,-11, -12, -2, -11, -3, 1, -1, 1
1503701500781,0, -7, -4, 3, -10, 1, 0, 5
1503701500792,6, 6, 2, 8, 8, -1, -3, -15
1503701500796,-7, -7, -6, -10, -12, -5, -3, -2
1503701500812,-10, -8, -1, -2, -9, -1, 2, -1
1503701500819,4, 4, -1, -9, -3, -1, -3, -4
1503701500834,-7, -3, 1, 8, -3, -1, -1, 2
1503701500841,-9, -2, -6, 0, 4, 1, 2, 9
1503701500849,1, 10, 4, -1, 5, 0, -3, -5
1503701500864,1, 1, 5, 3, 3, 1, -1, 2
1503701500872,0, -7, -8, -6, -13, -2, 3, 19
1503701500879,-4, 1, 5, -1, 10, 0, 0, 11
1503701500894,10, 0, -7, -6, 3, -2, -2, -13
1503701500901,-6, -1, 5, 11, 3, -2, 1, 4
1503701500910,21, -7, -11, -6, -14, -5, -7, -27
1503701500926,0, -9, -5, 9, 11, -1, 3, 5
1503701500932,-5, 0, 5, 1, 2, 2, 4, 7
1503701500939,9, -2, -2, -2, 4, 0, -10, -22
1503701500954,-13, 7, 3, 5, 4, 4, -1, 10
1503701500962,10, 16, -1, -4, 2, 7, 3, 15
1503701500969,-3, -5, -5, -2, 2, -6, -1, 6
1503701500984,21, -7, -5, -5, -7, -8, -1, -11
1503701500993,8, 3, 11, 5, 5, 1, 2, 9
1503701500999,-2, -3, 7, -2, 2, 1, -3, -6
1503701501014,-1, -6, -4, -1, 0, -3, -3, -6
1503701501021,-8, -3, -5, -7, -1, -2, 1, -10
1503701501037,-8, 1, 10, 6, 6, 5, -2, -6
1503701501044,-1, 0, -2, -7, -11, -1, -2, 1
1503701501052,4, 3, -2, -2, 6, 5, -3, -2
1503701501060,-3, -3, -2, -6, -11, -1, -1, 2
1503701501074,-9, 0, -7, -2, -8, -5, -2, 1
1503701501081,1, 2, 0, -2, -4, -3, 0, 3
1503701501089,-3, -4, 2, -12, -12, -5, -2, 1
1503701501104,-4, -6, 1, -5, 6, 1, 0, 4
1503701501112,3, 2, -5, -13, -10, -8, 0, -3
1503701501119,-1, 11, 3, 8, -3, -5, -5, -10
1503701501135,-5, -19, 6, 1, -7, 1, -2, -7
1503701501141,-1, -6, -7, 2, 5, -1, 1, 1
1503701501149,4, 4, -5, -2, -1, 0, -1, -11
1503701501164,0, -3, 0, -5, -10, 2, 1, 1
1503701501172,1, 6, 4, 41, 41, 15, 1, 6
1503701501179,0, 5, -2, -1, -9, -1, 0, -1
1503701501194,-4, -4, -6, -8, -14, -7, -2, 1
1503701501202,-3, -10, -4, 0, 6, -1, -5, -1
1503701501216,0, 2, -4, -1, -7, 0, 2, -3
1503701501217,-2, 7, 5, 4, 10, 3, -2, 0
1503701501224,-5, -14, 0, -3, 1, 1, -1, -4
1503701501232,-2, -1, -7, -11, -10, -3, 3, 3
1503701501239,-1, -3, -2, 2, -14, -3, -2, -2
1503701501254,-3, -3, -3, 0, 6, -3, -1, 1
1503701501261,2, 5, 0, -4, -1, 0, 2, 4
1503701501276,5, 2, 0, -4, -3, -2, -1, 8
1503701501284,-2, -1, 1, 14, 28, 0, -2, 9
1503701501294,3, -5, -2, -9, -29, -4, -1, 9
1503701501299,-4, 5, 8, -2, -5, -1, 1, 1
1503701501314,-8, 4, -1, -5, 2, 2, 1, -7
1503701501321,-4, 3, -3, 9, 19, 2, 1, -2
1503701501337,4, 4, 0, -9, 1, 0, 0, -6
1503701501344,-1, 3, 6, 6, 0, 4, -1, -9
1503701501352,-6, -4, -3, 0, -6, -7, -2, -4
1503701501362,1, 1, -3, -11, -5, 0, -3, -7
1503701501375,9, -6, 2, 17, 29, 2, 1, 1
1503701501381,9, 1, -6, -3, -5, -2, 0, 0
1503701501396,-2, 5, 0, -7, -22, -4, -3, 4
1503701501404,-8, 6, -1, 12, 16, 4, -1, -1
1503701501405,-8, -8, -1, -4, -4, -3, -2, -2
1503701501412,-1, -8, 1, 5, 3, -1, 1, 1
1503701501419,3, -2, -4, -10, -4, -5, -2, -5
1503701501434,5, 9, 1, 2, 9, 4, 0, -7
1503701501442,-4, -2, -5, -4, 4, 0, 0, -3
1503701501457,10, 0, -4, 19, 28, 11, 1, -1
1503701501464,4, -19, -6, -8, -37, 3, -2, 4
1503701501472,-9, 2, 7, -13, -19, -4, -3, -1
1503701501479,-5, 17, 15, 7, 9, 3, -1, -2
1503701501495,-2, 7, -3, -6, -3, -4, -2, -7
1503701501502,-13, 0, -9, -5, 0, -6, -1, 0
1503701501517,10, 19, 7, -6, -9, -2, 0, 0
1503701501524,0, 5, 9, 7, 5, 0, 3, 8
1503701501533,-18, -9, -5, -6, 1, -2, -5, -12
1503701501539,-10, -1, 2, 2, 5, 0, -1, 1
1503701501554,10, 2, -1, -5, -6, -2, 3, 5
1503701501563,3, -8, 3, 10, 15, 2, 1, -7
1503701501577,-1, -12, -9, -7, -4, 4, 0, 7
1503701501584,17, 4, -4, -1, 0, -2, -2, 2
1503701501592,-1, -12, 6, 1, -1, -1, -2, 8
1503701501600,-4, -3, -9, -6, -7, 2, -1, -5
1503701501614,-3, 8, -1, -5, -6, -5, -5, -13
1503701501621,0, -5, -6, -5, -6, -5, -3, 6
1503701501630,16, -5, 0, 4, 11, 2, 1, 5
1503701501644,3, 1, -5, -1, -1, -1, -2, -7
1503701501652,-5, -3, 0, 13, 25, 4, 1, -5
1503701501673,-2, -1, -1, -2, -3, -4, -1, -14
1503701501675,-8, -5, -4, -9, -21, 0, 3, 2
1503701501681,-3, 6, -4, -3, -2, -2, -3, -5
1503701501689,2, 2, 5, 9, 22, 7, 1, 2
1503701501690,11, 4, -6, -6, -23, -5, 0, 1
1503701501705,2, 13, -4, -3, -6, 12, -2, -7
1503701501712,11, 12, -3, -4, -21, 1, -5, 4
1503701501719,-18, -23, -8, -2, 16, 0, 1, 5
1503701501734,-13, -24, -2, 2, 12, 1, -1, -6
1503701501741,9, 10, 2, -1, -9, -7, -2, 1
1503701501749,-11, -28, -20, -9, 7, -7, -5, -6
1503701501764,4, 16, 13, 3, 15, -5, 1, 4
1503701501773,-5, 6, -10, -2, -2, -6, 0, 2
1503701501786,8, 7, 10, -1, -9, 2, -1, 5
1503701501796,16, 29, 10, 12, 19, 8, 3, 9
1503701501801,-4, -20, -10, -1, 5, -3, -1, -3
1503701501817,-3, -3, 4, -3, -2, -2, -2, -3
1503701501824,-12, -13, -1, 0, -40, -32, -5, 0
1503701501832,-7, -5, 3, -15, -27, -16, -4, -2
1503701501846,-5, -11, -13, -7, 3, 12, -1, -8
1503701501854,2, 10, 1, -1, -8, 1, 2, 1
1503701501863,0, 1, 2, -3, -14, -2, -2, 0
1503701501877,-7, 0, -1, 17, 51, 15, 0, -8
1503701501884,-4, -3, 1, 1, -30, 7, 1, 2
1503701501892,-10, -3, 21, 6, -41, -7, -1, -2
1503701501906,-13, -14, -8, 3, 9, 16, 2, -3
1503701501914,8, 2, -4, -6, 10, 18, -2, -2
1503701501921,4, 3, 8, 3, 4, 3, 2, 5
1503701501936,5, -5, -2, 1, 5, -7, 1, 1
1503701501944,5, 4, -6, -4, 31, -8, -2, 2
1503701501952,-9, -4, -3, -4, -6, -7, 1, -1
1503701501966,9, 5, -1, -10, -14, 5, 0, 3
1503701501967,11, 3, -6, 3, 23, -33, -1, -6
1503701501981,-5, -5, -4, -3, 0, -40, -8, -7
1503701501982,8, 10, 5, -1, -4, -5, -5, 1
1503701501997,5, -4, -3, -5, -14, -9, -2, -1
1503701501998,-3, -2, -5, -3, -5, -2, 2, 2
1503701502004,-3, 0, -2, -2, 1, -9, -8, -5
1503701502012,2, -1, -1, -3, -4, 9, 0, 6
1503701502026,5, -4, 0, 1, 8, 23, 4, -7
1503701502034,-7, -5, -4, -3, -2, -4, -4, 4
1503701502035,-9, -5, -4, -7, -12, -2, -1, -3
1503701502041,-1, 0, -5, -2, -9, -1, -1, 7
1503701502056,29, 8, -7, 0, 3, 11, 0, -18
1503701502065,-7, 2, 0, 0, -5, 5, 3, -3
1503701502073,-7, -3, -1, 3, 23, 24, -2, 6
1503701502086,0, 0, 5, 2, 23, 21, 13, -10
1503701502094,-5, -7, -2, 6, -4, 1, 0, -18
1503701502102,5, 4, 2, 1, -6, 1, -14, 4
1503701502117,-2, 5, 3, 1, 1, -3, -5, 0
1503701502124,-5, -6, -1, -5, -7, -10, -1, 7
1503701502132,-13, 3, 14, 3, -1, 0, 6, -3
1503701502146,-18, -1, 21, 3, -6, -5, -1, 2
1503701502154,19, 7, 2, 0, -6, -5, 0, 5
1503701502161,4, -1, -6, -1, -1, -8, -5, 4
1503701502177,-14, -22, -2, -2, -5, 7, -1, 10
1503701502184,-10, -12, -15, -9, 8, 20, -9, -40
1503701502192,9, -6, -12, -2, -4, -4, -10, -17
1503701502207,-6, -15, -7, -8, -16, -22, -3, 11
1503701502214,-7, -18, -14, -12, -13, -2, 20, 17
1503701502221,4, 0, 1, 1, -6, -1, 1, 12
1503701502237,-8, 1, -3, 2, 2, 0, -3, 10
1503701502244,1, 13, -6, -3, -23, -17, -2, 1
1503701502252,-7, 0, 1, -10, -8, -1, -18, -1
1503701502266,3, -2, 2, -6, -28, -7, -8, -5
1503701502275,-3, 0, 4, -1, -11, -1, -8, -1
1503701502281,7, 0, -2, -1, -5, 7, 9, 7
1503701502299,3, -5, -8, -4, 17, 3, -2, -18
1503701502304,17, -2, -3, 3, -3, -9, 3, -1
1503701502319,-16, 0, 13, 26, 43, 1, 0, -2
1503701502326,3, 8, 5, -3, -4, -2, -24, -5
1503701502335,-4, 10, 7, 2, 3, 2, 4, 9
1503701502341,2, -3, -5, 3, 14, 11, 9, -9
1503701502357,20, -7, -9, -7, -11, 3, 4, 12
1503701502366,-5, -2, -1, -1, 8, -3, 2, 7
1503701502372,1, 12, -2, -2, -9, -10, 3, 0
1503701502386,-2, -4, 2, 3, 4, 9, 8, 1
1503701502394,-3, -3, -5, -5, 7, 11, 6, 8
1503701502401,12, -3, 0, -11, -7, 4, 0, 3
1503701502402,-6, 3, 4, 24, 22, 10, -1, -3
1503701502416,4, 5, -1, -8, 13, -9, -7, -15
1503701502424,-10, -2, -3, -10, -17, -3, 3, 1
1503701502436,-9, -6, -1, -3, -10, 13, 7, -4
1503701502446,1, 11, -2, -1, 14, 22, 11, 3
1503701502454,-8, 4, 0, -5, -18, -8, -10, -2
1503701502461,-19, 3, 4, -5, -11, 5, 13, 14
1503701502476,18, -22, -8, -4, -23, -23, 2, -1
1503701502484,-17, -2, 5, 3, 4, -8, -3, -7
1503701502492,8, 10, -1, 0, -7, -12, -3, 13
1503701502506,-11, -4, 3, -3, 8, -3, 0, 2
1503701502514,-13, 7, 10, 7, 7, 8, 20, 1
1503701502521,17, -16, -4, -3, 5, -2, -7, -6
1503701502537,10, 3, 17, 9, -2, 11, 1, -3
1503701502544,3, 4, 0, 0, 2, -7, -23, -2
1503701502552,-2, -5, -4, 1, 9, 7, -4, -3
1503701502567,12, 5, 4, 4, -11, -4, 0, 8
1503701502568,10, -4, -11, -7, -15, -30, -11, -9
1503701502575,-27, 18, -5, 2, 3, -5, -10, -9
1503701502581,11, -2, 8, 4, 21, 13, -1, -12
1503701502596,23, 5, -2, -1, -2, -5, 2, -5
1503701502604,12, -10, -3, -3, 0, 2, 2, 10
1503701502612,3, -24, -17, -9, -4, 0, -10, -20
1503701502626,-14, 7, 4, 0, -1, -5, -3, -15
1503701502638,-3, -1, 5, -5, 1, -2, 1, 43
1503701502641,2, -9, -12, -4, -15, -6, -3, -17
1503701502642,17, -13, -2, 2, 11, 14, 11, -11
1503701502656,3, -25, -3, 0, 4, 0, 6, 25
1503701502664,3, 5, -2, -7, -9, 6, -5, -2
1503701502673,11, -1, -3, 3, 23, 16, -2, -25
1503701502687,-20, -1, -5, -1, -4, -5, 2, -15
1503701502694,11, 20, 3, 0, -8, -18, -8, -7
1503701502702,-5, 11, -1, -2, -3, 7, 13, 15
1503701502716,-17, -10, -9, -7, 2, 8, 5, 2
1503701502724,18, 35, 25, 7, -6, -6, -1, -7
1503701502740,0, 1, 0, 1, -10, -6, -1, 2
1503701502746,-6, -7, -8, -1, 0, -5, -2, 9
1503701502747,-6, -14, -14, -6, -2, 1, 0, 25
1503701502754,-18, 10, 6, 0, -2, -1, -6, -12
1503701502770,-9, -3, -2, 1, 9, 11, 4, 4
1503701502778,-4, -12, -3, -1, 0, 0, 0, -2
1503701502784,1, 11, 5, 14, 53, 30, 12, 7
1503701502802,-7, 1, 0, -3, -10, 9, 11, 5
1503701502808,-3, -9, -9, -8, -18, -10, -5, -8
1503701502815,-11, 4, 7, 4, 8, -9, -4, 6
1503701502828,-4, -15, -15, -6, -19, -10, -7, 19
1503701502837,-9, -16, -1, -5, -7, -5, -11, -17
1503701502845,-20, 2, 5, 1, -6, -3, 2, 9
1503701502859,3, 9, -5, -4, 0, 1, -2, -7
1503701502870,16, 0, -8, -6, -8, -13, -13, -22
1503701502875,7, -5, -4, -1, -3, -4, -1, 10
1503701502888,14, -20, -13, -5, -12, -4, 5, 8
1503701502896,10, 16, 4, 2, 1, 0, -13, 6
1503701502906,-10, 2, -1, 1, -2, 6, 2, -6
1503701502919,-1, -1, -9, -1, 1, 0, -2, -25
1503701502926,-9, 7, 0, 3, 24, 11, -6, -2
1503701502936,11, 5, 6, 16, 1, 3, 0, -16
1503701502948,-1, -1, 7, 0, 4, 3, 1, 14
1503701502956,-7, -6, 0, -1, 24, 15, 11, 8
1503701502964,-1, 7, 5, -1, -10, -13, 16, 11
1503701502979,-8, -5, -2, -4, -19, -8, -3, -1
1503701502986,3, -8, 0, -4, -6, -1, -2, -3
1503701502994,-12, 11, -1, -2, -10, 0, 6, 0
1503701503008,-4, 5, -2, 2, -2, 3, -1, -39
1503701503016,-18, 13, 5, -1, 2, -7, -7, 10
1503701503024,0, 4, -4, -3, -8, -15, -11, -11
1503701503039,23, 2, -2, -8, -11, -2, -2, -16
1503701503046,0, -16, -10, -3, -11, -7, -3, -4
1503701503054,18, 1, -6, -5, -11, -7, -2, 9
1503701503070,3, -27, -10, -4, -4, -5, -6, -4
1503701503076,-5, 4, 1, -2, -9, -21, -4, -8
1503701503084,-4, -6, -4, 0, 0, -2, -6, -8
1503701503099,5, 19, 8, -1, 1, 7, 0, -2
1503701503106,-2, 19, 7, 1, 0, -6, 0, 16
1503701503114,-5, -21, 0, 3, -4, 2, 0, -7
1503701503128,5, 22, 12, 4, -1, 2, 0, -2
1503701503138,9, -10, -7, -3, 12, 8, 2, 12
1503701503145,3, -10, -3, -5, -3, 0, -1, 1
1503701503159,-2, 8, 12, 2, 10, 2, 2, 9
1503701503166,0, 2, 0, 2, -4, -5, -2, 7
1503701503174,-1, -4, -3, 1, -6, -3, 0, 9
1503701503188,-4, -4, -2, -4, -3, -4, -1, 3
1503701503196,-11, 19, -2, -8, -5, 1, 0, 3
1503701503204,-2, 13, 18, 8, 0, 2, -4, -9
1503701503219,-1, -25, -14, -6, -4, -4, -3, -9
1503701503226,0, -5, 4, 4, 6, 1, -1, -21
1503701503234,-9, -11, 1, 3, -1, 3, 0, -6
1503701503249,4, -8, -9, -4, 4, -2, -1, 8
1503701503257,4, -5, -9, -7, 13, -6, -1, -2
1503701503264,-2, 8, 3, 5, 4, 5, -1, 5
1503701503279,0, -14, -6, 3, 13, -1, -2, -5
1503701503286,-1, 8, -7, -6, 11, 0, -2, 1
1503701503294,-10, -6, -1, -2, -5, 0, -2, -8
1503701503309,4, 22, 9, -1, -5, -1, 0, 2
1503701503317,-11, -2, 2, 1, -5, -3, -1, 1
1503701503323,4, -14, -12, -4, -9, -4, 0, -4
1503701503339,5, 19, 12, 5, -1, -1, -1, -2
1503701503346,4, -4, -4, -6, 3, -5, -1, 4
1503701503354,4, -5, 0, -3, -6, 0, -1, -3
1503701503371,-4, -4, 10, -4, 12, 1, 0, 7
1503701503377,10, 13, 0, -3, 2, 4, 0, 5
1503701503383,1, 1, -2, 5, -1, 1, 1, 0
1503701503399,4, -5, 5, -2, -3, -3, -3, -4
1503701503406,-10, -7, -10, 7, 3, 1, 0, 2
1503701503414,6, 26, -5, 1, -1, 1, 2, 2
1503701503428,29, -3, -4, -4, 0, -1, -3, -8
1503701503429,-3, -7, 6, 4, -8, -4, -1, 1
1503701503438,-24, -24, -15, -6, 1, -1, -2, -2
1503701503444,-14, -6, 2, -12, -9, -4, -2, 2
1503701503458,-2, -17, 1, 16, 38, 10, 3, 4
1503701503466,9, -2, -6, -5, -5, -2, -1, -2
1503701503475,7, 5, 12, -11, -13, 2, -2, -7
1503701503489,2, 10, 4, 2, 0, -1, 1, -1
1503701503497,22, 2, -3, 5, -3, -3, -5, -2
1503701503505,-4, -21, -15, -4, -10, -1, -2, -6
1503701503518,8, 10, 4, -1, 4, 1, 0, -4
1503701503526,0, 2, -1, -5, -6, -5, -1, -5
1503701503534,-19, -23, 5, 8, 27, 10, 3, 8
1503701503549,-7, 7, -4, 3, -1, -4, 2, 2
1503701503556,-4, 4, 4, -9, -15, -7, -3, 5
1503701503563,10, 5, 13, 2, 0, 3, 2, 11
1503701503579,-5, 2, -7, 1, -9, -7, -2, 3
1503701503586,0, -8, 4, 7, 5, 4, -4, -19
1503701503602,-11, -21, -11, -1, -5, -1, -4, -13
1503701503610,13, 2, -4, -6, -6, -1, 1, 3
1503701503617,3, 3, 1, 2, -6, -1, -3, -19
1503701503624,13, 1, 4, 0, 17, 3, -2, 3
1503701503641,-17, -1, -5, -4, -11, -1, 3, 11
1503701503646,-7, 4, -2, -2, -2, -1, -3, -4
1503701503662,-7, -4, -8, -6, -12, -8, -2, 17
1503701503669,0, 18, 15, 2, -9, -6, -7, -12
1503701503677,12, 12, 10, 18, 10, 3, -1, -12
1503701503691,0, -2, -11, 0, -1, -1, 3, 14
1503701503699,16, 5, 6, -4, -2, -2, 0, -5
1503701503707,1, -12, -8, 0, -2, 0, 0, 1
1503701503721,9, 3, 5, 3, 11, 0, -1, -2
1503701503729,-18, -8, -13, -7, 9, -1, -2, 2
1503701503739,-7, 11, 0, -1, 11, 4, 1, 6
1503701503750,-1, -17, -1, -4, -3, -3, -2, -1
1503701503751,-4, 6, -6, -8, -18, -6, -1, -2
1503701503759,11, -6, -5, -5, 0, -1, -2, -2
1503701503766,-14, -7, -1, -2, -4, 0, 1, 10
1503701503782,3, -6, -6, -2, 0, -4, -5, -27
1503701503783,-15, -5, -5, -8, -14, -5, 0, 6
1503701503789,6, -5, -3, 6, 1, 1, -2, -14
1503701503797,-4, -1, -6, -13, -3, -6, 1, 0
1503701503811,1, -12, 5, 17, 8, 7, 1, 6
1503701503819,2, -2, -10, -4, -16, -4, -2, 9
1503701503826,-6, 5, 8, -3, -2, -2, 1, -5
1503701503843,-13, 6, 1, 4, 2, 2, 1, 2
1503701503850,2, -6, -8, 3, -3, -1, -3, -2
1503701503857,1, -6, -2, 3, -3, 1, -3, -10
1503701503871,-5, -4, -5, -6, -7, -4, -1, 7
1503701503880,2, -9, -5, -1, -9, -3, -3, -7
1503701503886,-1, -1, 6, -1, 3, 1, 0, -1
1503701503901,-4, -14, -1, 0, -1, 2, 2, 7
1503701503912,-2, -2, 7, -2, 0, 0, 0, 2
1503701503917,-5, -8, 5, 4, 1, 2, -1, -1
1503701503930,7, -3, -10, -5, -1, -2, -1, -5
1503701503943,-4, 11, 5, 0, -2, -3, 1, 13
1503701503946,2, 5, 2, -2, 7, 0, 1, -2
1503701503961,1, 10, 1, 1, 1, -1, -2, -4
1503701503969,-3, -5, -3, -3, -3, -1, -1, -1
1503701503977,4, 4, 3, 0, 0, 3, 1, 0
1503701503990,3, 1, -6, -6, -6, -1, 1, -1
1503701503999,1, -12, -3, -9, -8, -5, -1, -10
1503701504008,1, 4, -2, 0, -2, 1, -3, 0
1503701504021,8, 1, -3, 6, 3, -2, -2, -9
1503701504029,-7, 4, 7, 2, 0, -3, -2, -1
1503701504037,-2, 1, -1, -2, 1, -2, 1, -2
1503701504051,-1, -3, -6, 0, -4, -1, -2, -4
1503701504059,-5, 6, 2, -1, -1, -1, -1, 0
1503701504066,2, -7, -2, -3, 1, -1, 0, 1
1503701504082,-1, -5, -3, 5, 23, -2, -4, -3
1503701504089,3, -3, -6, 0, 2, -1, -3, -2
1503701504097,-1, 8, -2, -9, -15, -3, -1, -1
1503701504111,-4, 8, 7, 10, 6, 3, -1, 3
1503701504119,1, -17, -6, -4, -7, -2, -2, 0
1503701504126,-3, 3, -1, -4, -6, -2, 1, 0
1503701504142,0, -4, -3, 0, 0, 1, 0, -2
1503701504149,2, -5, -4, -2, 1, -3, -2, -1
1503701504157,-1, 0, 0, 2, 3, 0, 1, -2
1503701504179,-5, -1, -3, -9, -2, -1, -2, 1
1503701504180,-3, 1, 0, -1, -4, -1, -2, -1
1503701504186,-11, -6, -3, 3, 0, -2, -4, -5
1503701504201,-5, -4, -7, -11, 10, 0, 1, 0
1503701504209,2, 1, 5, 9, -4, 0, 0, 1
1503701504217,-11, -7, -1, 14, 10, -11, -27, 2
1503701504230,-8, -1, -1, -4, -1, -2, -3, -3
1503701504239,-8, 1, -1, -1, -27, 3, 8, -3
1503701504246,-5, 0, -2, -3, -9, -11, -1, -6
1503701504261,19, 0, -2, -10, -11, -5, -1, 3
1503701504269,11, 1, -3, -3, 2, 7, 12, 0
1503701504277,9, -7, -7, -3, 2, -2, 0, -1
1503701504290,6, 0, 1, 2, 1, 4, -3, -1
1503701504291,11, 7, 11, -2, 3, 0, -1, -1
1503701504299,-2, -5, 1, 2, 2, 3, 1, -1
1503701504308,8, 17, -8, -5, -7, -2, -4, -9
1503701504321,2, 19, -1, -1, -3, 2, 5, 0
1503701504329,-8, -31, -8, 0, 4, 1, -2, -6
1503701504337,-2, 2, 1, -8, -5, -8, -2, -2
1503701504351,-4, 0, -2, -2, -2, 0, -2, 3
1503701504359,-3, 6, 6, 9, 13, 2, -1, -5
1503701504366,-1, 1, 1, -1, 2, 0, 1, 4
1503701504381,-1, -1, -1, 1, 2, 2, 2, 0
1503701504389,0, 13, 17, -1, -8, 0, -2, 3
1503701504397,1, 2, 2, -5, -11, -3, 1, -5
1503701504411,-3, -10, -9, -4, -9, -6, -4, -2
1503701504419,3, 5, 6, 4, -2, 4, 0, -1
1503701504426,-2, -8, -10, -5, 5, -1, -2, 1
1503701504443,-2, -9, -6, 2, -5, 1, 2, 1
1503701504449,1, 0, 0, 5, 3, 1, 0, 4
1503701504457,3, -2, 0, -2, 7, -3, 1, -2
1503701504470,-5, -1, 2, 1, 2, -1, -1, 3
1503701504479,-1, -3, -16, -7, -5, -2, -2, -2
1503701504486,-1, 8, 3, 5, 12, -1, -1, -3
1503701504501,0, -11, -1, -2, -3, -1, -3, 1
1503701504510,1, 3, 1, -2, -2, 0, -2, -2
1503701504516,3, -3, -4, -3, -2, 1, -1, 2
1503701504530,-1, -10, -6, -3, -7, -2, 0, 6
1503701504538,1, 5, 7, 5, 2, 0, -2, 2
1503701504546,1, 5, 0, 0, -1, 0, 3, -1
1503701504561,-11, -1, 0, -2, -5, 0, 1, 0
1503701504569,18, 0, -2, -1, -15, -1, -2, 2
1503701504590,2, -17, -7, -1, -1, -2, -4, -4
1503701504591,-10, 1, 0, 1, 4, 0, -1, 0
1503701504599,-18, -2, 1, 0, 1, -1, -1, 2
1503701504614,22, 8, 4, 1, 0, -1, 1, 4
1503701504621,-5, -2, 2, -5, -5, -1, -3, -4
1503701504629,-19, -11, -4, -3, -9, -6, -1, -4
1503701504644,-2, 3, 4, 5, 21, 10, 1, 3
1503701504650,6, -7, -6, 1, 4, 2, -1, -2
1503701504658,11, -1, -3, 1, -8, -4, 0, 0
1503701504673,-5, -5, -6, -4, 0, -2, -1, -5
1503701504681,11, -9, -4, -3, 1, -1, -1, -17
1503701504689,-9, 6, 2, -4, -4, -2, -1, 0
1503701504704,-3, -7, -1, 1, -1, 0, 0, 1
1503701504712,-3, 8, 2, 1, 5, 1, -3, -8
1503701504719,11, 4, -4, 0, -13, -9, -1, -3
1503701504733,-7, -4, 1, -1, -6, 2, 2, 4
1503701504741,-6, -2, -2, -2, -6, -6, -3, -4
1503701504749,6, -1, 0, 0, -3, -7, 0, -3
1503701504763,-10, -20, -4, 1, 9, 15, 3, 2
1503701504764,-7, 11, 8, 4, 4, 4, -3, 1
1503701504770,7, -1, -3, -2, -2, 1, -1, 4
1503701504779,1, -7, -6, -5, -1, -4, 0, 2
1503701504793,-12, -1, -1, 10, 17, -2, 0, 0
1503701504801,-3, 13, 14, -1, 8, 6, -1, -3
1503701504809,1, -3, -8, -5, 5, 4, -2, -18
1503701504823,-10, -7, -3, -2, -3, -1, 0, 3
1503701504824,4, 7, 5, 5, 1, -2, 0, 11
1503701504830,2, 4, 4, 2, 5, 3, -3, -34
1503701504838,-8, 6, -4, -4, -9, -4, 3, 12
1503701504853,-7, 0, 0, -1, -6, -8, 0, 9
1503701504861,-3, -20, -9, -1, -6, -5, 1, 3
1503701504875,-2, -11, -3, -2, -5, -1, 0, 7
1503701504884,-6, -4, -3, -6, -1, 0, 4, 15
1503701504890,-7, -6, 3, -3, -1, 1, -1, 2
1503701504899,2, -6, -11, -3, 10, 7, 1, 5
1503701504913,1, 7, 3, -4, -13, -1, 1, 11
1503701504921,-22, -9, -3, -1, 2, 1, -4, -21
1503701504928,3, 10, 6, 2, 2, -1, -5, -5
1503701504945,27, -2, 0, -1, -5, -4, -3, 6
1503701504950,-1, 4, -8, -1, 1, 2, -1, -15
1503701504958,-16, -2, 7, 4, 25, 7, -5, -5
1503701504973,0, -5, -5, -11, -18, -24, -7, 13
1503701504981,7, 0, -4, -4, -10, 0, 0, -10
1503701504988,9, 9, 7, 3, 33, 11, 4, 4
1503701505003,0, -6, -5, -1, 4, 2, 4, 8
1503701505013,-6, -15, -4, -1, -24, -20, -4, -3
1503701505019,-8, -2, 3, 4, -1, -2, -2, 3
1503701505033,3, -6, -5, 2, 7, 10, -6, -5
1503701505041,5, 2, -3, -4, -10, -3, -4, -5
1503701505049,-21, 1, -2, 3, 7, 4, 1, -20
1503701505063,9, 20, 8, 2, -12, -5, -2, -4
1503701505070,-2, -12, -1, -7, -11, -1, 2, 11
1503701505080,-3, -2, 0, 0, -3, 26, 15, 5
1503701505093,-10, -9, 9, 1, -4, -1, 3, 10
1503701505101,3, 4, 4, -1, -10, -11, -4, -6
1503701505109,13, 11, -10, -5, -12, -3, -3, -23
1503701505123,-5, 3, 14, 8, 4, -3, -5, 0
1503701505130,1, 5, -3, 3, 3, -6, -1, 20
1503701505139,-8, -13, -12, -4, 6, -2, -9, -5
1503701505153,11, 1, 3, 2, 6, 19, 11, 21
1503701505161,-7, -8, -4, -4, -6, -10, -1, -4
1503701505169,7, 5, -2, -4, -3, -2, -1, 11
1503701505184,18, -4, -5, 3, 5, -2, -10, -30
1503701505190,-5, -6, 2, 0, -1, -1, 5, 5
1503701505198,-14, 13, 2, -3, 3, -3, -3, 29
1503701505218,-15, -13, 11, 7, 4, -5, -9, -19
1503701505222,15, -21, -7, -5, -5, -6, -12, -4
1503701505229,-3, -3, -10, -5, 0, 0, -7, -11
1503701505244,0, -1, -5, -1, -5, -2, 3, -7
1503701505251,7, 12, 10, 7, 4, 0, -8, -28
1503701505260,8, -2, -7, -4, 1, 6, 11, 0
1503701505273,3, 0, -6, -3, -8, -8, -1, 7
1503701505282,3, -6, -5, 0, -4, -4, 2, -34
1503701505289,-8, -13, -5, -1, 13, 5, 3, 6
1503701505304,-12, -1, 1, 0, 1, -2, 5, 21
1503701505311,1, -8, -9, -2, -2, 3, 2, 0
1503701505319,-3, -3, 5, 4, -2, 0, -2, 12
1503701505333,4, -2, -4, -2, -3, 2, -2, -9
1503701505341,11, 7, -2, -4, -5, 5, 1, -12
1503701505349,7, -1, 0, -3, -4, -6, -16, 8
1503701505364,-14, -1, -1, 0, 2, 2, -5, -3
1503701505371,-5, 1, 0, -6, -7, -3, 1, 3
1503701505383,-14, -16, -9, -6, -1, 0, -2, 10
1503701505393,6, 6, 0, 0, 2, 1, 2, -1
1503701505401,10, 0, 2, 0, -6, -12, -6, -13
1503701505409,-9, -7, -2, 2, -4, -3, 0, 0
1503701505425,4, 17, 1, 1, 11, 3, -1, -14
1503701505430,-13, -7, -1, 1, 2, 3, 2, 3
1503701505439,-3, -3, 0, 3, 0, -3, 1, 6
1503701505453,13, -2, -1, 0, 2, -2, -1, 1
1503701505461,-7, 4, 2, 6, 28, 10, 3, 7
1503701505468,-1, 15, 3, 0, -1, 6, 4, 1
1503701505484,12, 13, 20, 1, -5, -3, -1, 1
1503701505491,-10, -4, -1, 6, 5, 0, 0, -1
1503701505499,2, -11, -16, -5, -7, -10, 0, 1
1503701505516,4, 2, 5, 0, -3, -1, -1, -18
1503701505521,9, 4, -5, 3, 7, 2, 4, 11
1503701505535,-6, -12, -9, -3, 0, 0, 2, -7
1503701505544,-4, -3, -3, -4, -6, -1, 2, 9
1503701505550,5, 7, 4, 2, 2, -3, -3, 0
1503701505551,1, -2, -2, -2, -10, -5, -2, 2
1503701505566,-22, -14, -7, -3, -8, -4, -3, 1
1503701505573,-5, 4, 2, -3, 2, 3, -2, 7
1503701505582,-5, -15, -7, -4, -3, 0, 1, -2
1503701505595,-1, 2, 5, 4, 3, -1, 3, 2
1503701505604,7, -2, -4, -4, -6, -5, -8, -21
1503701505610,-1, 22, 1, -1, 4, -1, 1, 1
1503701505626,-2, 10, 5, -2, -5, -3, -1, 4
1503701505640,-2, 1, 1, 0, -8, -7, -8, 3
1503701505642,-2, 1, 2, -1, 4, 4, 0, -3
1503701505655,4, -4, -11, -7, -9, -3, -1, 0
1503701505663,-13, 14, 19, 7, 0, -3, 0, -3
1503701505671,6, -14, -8, -7, 0, -1, -1, 0
1503701505686,-7, 4, -8, -2, 8, 6, 0, 1
1503701505693,-4, 2, 1, 7, 11, 10, 1, -4
1503701505701,-2, 3, -1, 7, 6, 3, 3, -1
1503701505716,8, -4, 3, 1, -5, 11, -3, -7
1503701505724,3, -4, -6, -7, -6, -3, -1, 8
1503701505731,-15, -6, 0, 0, -2, -5, 3, 11
1503701505746,12, 2, 8, 2, -4, -3, -7, -1
1503701505753,-3, 3, 2, -6, 0, -5, 0, -1
1503701505761,-3, -8, -5, -6, -15, -6, -3, -12
1503701505775,-2, -20, -6, -3, 25, 9, 2, -2
1503701505784,13, 9, 4, -1, -20, -7, -2, 7
1503701505785,-6, 5, 5, 6, 4, -2, -1, -9
1503701505792,5, 10, 11, 1, -2, -6, -3, 7
1503701505806,-7, -3, -2, 4, 2, -2, 0, 5
1503701505813,-19, -6, -6, 0, -1, -2, -5, 11
1503701505821,-1, -4, 0, -2, -4, 0, 1, 5
1503701505835,33, -18, -1, -3, -8, -3, -1, 13
1503701505844,-2, -7, -10, -4, 11, 5, 1, -2
1503701505852,10, 6, -11, -5, -10, -7, 1, -7
1503701505866,-3, 1, -4, -3, 4, 1, -1, -4
1503701505873,16, 5, -8, -3, 19, 13, 1, -4
1503701505881,-7, -9, 3, 5, 15, 1, 1, 5
1503701505897,-14, -11, -4, -1, -9, -7, 2, 2
1503701505903,25, 6, 0, 2, 17, 3, -1, 22
1503701505919,-7, 12, 4, -7, -14, -10, -4, -2
1503701505926,14, 6, -1, -6, -17, -8, -4, 9
1503701505934,2, -3, -1, 4, -5, 4, 2, 6
1503701505950,8, -10, -3, -19, -43, -8, -5, -26
1503701505956,-12, -15, -5, 4, 13, -19, -8, -18
1503701505963,3, 10, -6, -2, -10, -5, 1, 3
1503701505979,0, 8, 3, -1, -4, -5, -5, -2
1503701505986,1, 15, -2, -1, -3, -3, -3, -10
1503701505994,-2, -3, -8, -2, -12, 3, 7, 11
1503701506001,-2, 7, 4, 5, 11, 10, 9, -14
1503701506018,16, 1, -3, -3, -8, -3, 4, 9
1503701506024,-1, -19, -3, -2, 2, 9, 0, 3
1503701506039,-2, 0, 5, 5, -2, -6, -8, -8
1503701506046,-16, -23, -9, -2, -12, -8, -6, -13
1503701506054,-20, -5, 5, -3, -18, -5, -2, 0
1503701506061,-4, 3, 3, 0, 3, -11, -2, -6
1503701506076,-5, -18, -10, -6, -3, -2, -2, 5
1503701506085,8, 13, -1, 0, 3, 10, 4, 12
1503701506099,8, 8, -5, -3, 1, 4, 1, -25
1503701506106,-15, -13, 3, 4, 0, -1, 0, 2
1503701506114,-1, 10, 0, 0, 5, 2, -2, -11
1503701506121,10, 16, 3, 6, 16, 2, -3, 11
1503701506136,7, 15, 9, 5, 25, 11, 1, 6
1503701506143,-9, -8, 0, -4, -2, -3, 0, 20
1503701506160,-18, -19, -11, -4, -4, -1, 3, 32
1503701506166,2, -7, -4, -4, -3, -4, 0, -7
1503701506174,-18, -1, 5, 3, 0, 0, -3, -10
1503701506181,6, 11, 9, -1, -2, -1, -4, -4
1503701506196,6, 4, -2, 1, 0, -1, -1, -7
1503701506203,2, 1, -4, -1, 0, -1, -1, -11
1503701506219,-4, 16, 5, -1, 5, -1, -1, -8
1503701506227,0, 8, -4, 1, -2, 2, -4, 3
1503701506234,-7, -4, -1, -2, -8, -2, -3, 1
1503701506241,-6, -5, -1, -4, -6, -8, 1, 9
1503701506264,-16, -5, -1, 2, 11, 8, 1, 4
1503701506265,-4, -12, -4, 0, -1, -3, -3, -4
1503701506279,0, -13, -2, 2, 3, 1, 2, -2
1503701506286,-7, -1, 1, -2, 1, -2, -3, -15
1503701506294,5, 2, 5, 2, 4, 3, -2, -6
1503701506301,-2, -10, -4, -1, -1, 1, 2, 6
1503701506319,4, 11, 7, 1, 3, -2, -2, 4
1503701506323,4, 7, 2, 0, 2, 2, 0, -4
1503701506339,5, -6, -1, -3, -1, 3, -2, -8
1503701506346,-6, 1, 1, -1, -7, -3, -3, -8
1503701506354,9, 3, -4, -2, -1, 1, 1, 7
1503701506361,5, 10, -2, -1, -5, -1, -3, -3
1503701506377,-6, -1, -1, -1, -3, -4, -1, 2
1503701506384,4, -3, -1, 2, 0, -4, -6, -21
1503701506399,3, 11, -9, -2, 4, 2, -4, -4
1503701506406,8, 0, 0, -2, 0, 2, 2, -1
1503701506414,-3, -6, -2, 2, -6, -3, 0, 10
1503701506421,-8, -4, 7, -2, 2, -1, 1, 5
1503701506437,4, 1, 3, 2, 3, 1, 5, 17
1503701506443,0, -6, -7, -3, -4, -1, -2, -2
1503701506459,0, -11, 2, 0, -2, 0, 2, 2
1503701506466,0, -24, -11, -4, -4, 0, 0, 4
1503701506474,4, 8, 2, 2, 3, 0, 0, 3
1503701506489,-2, 3, 8, 2, 2, -1, -1, 6
1503701506496,10, 20, 14, 6, -10, -7, -2, -8
1503701506503,-8, 2, -6, 2, 9, 1, 0, 5
1503701506521,-2, -3, -2, -3, -3, -1, 1, -1
1503701506526,12, -7, -4, 0, 0, 0, -3, -3
1503701506534,-3, -19, -5, 1, 5, 3, 0, 1
1503701506549,-10, -5, -8, -4, -1, 3, 2, -4
1503701506557,-3, 15, 13, 8, 8, 0, -1, -12
1503701506563,-3, 4, 4, 2, -4, 1, 0, 13
1503701506579,-6, -30, -7, -8, -3, -1, -2, -17
1503701506587,2, 2, 5, -6, -6, -5, 4, 14
1503701506594,-5, -5, -9, -9, 4, -1, -1, 2
1503701506608,-8, 12, 8, 5, 18, 9, 5, 8
1503701506616,-3, -14, -11, -3, -1, 0, -1, -9
1503701506624,8, 21, 13, 5, -2, 0, 1, -5
1503701506639,2, 9, 1, 7, -2, -2, -2, 4
1503701506646,-16, -17, -9, -4, -13, -6, -5, -3
1503701506655,5, -6, -2, 1, 1, -1, -2, -8
1503701506668,6, 11, -4, -1, -9, -6, -2, -6
1503701506676,-7, -10, -2, -1, -2, -2, 2, 9
1503701506677,-8, -3, -2, -4, -1, -1, -2, -5
1503701506683,2, -6, 3, 3, 9, -1, -5, -1
1503701506699,8, -10, -9, -4, -7, 0, -2, -1
1503701506706,-2, 3, 3, 0, 9, 3, 0, 3
1503701506714,-6, 6, 2, -1, -2, 0, -1, 2
1503701506729,16, 4, 1, 5, 3, -4, -2, 0
1503701506736,-6, 4, 1, -3, 0, -2, -1, 7
1503701506744,3, -11, -7, -5, -17, -5, -1, -4
1503701506759,6, 8, -12, -4, -3, 0, -2, 0
1503701506766,-3, 31, 5, 2, 3, 1, 0, -3
1503701506774,-4, -12, -11, -2, -3, -3, 0, -2
1503701506789,-7, -11, -6, -5, -1, -2, -2, -1
1503701506797,-11, 4, 9, -8, -3, 1, 3, -3
1503701506803,2, -2, 0, -3, -4, -2, -1, -1
1503701506821,-3, -2, 2, 5, 8, 3, -1, 0
1503701506827,5, 0, -6, 2, -4, 2, -4, -10
1503701506834,-3, 4, 6, -7, -5, -3, 0, -18
1503701506849,-13, -9, 3, 3, -2, -2, -1, -4
1503701506857,11, 2, 1, 5, -7, 2, 0, 5
1503701506864,7, 8, -9, -4, -3, -3, -3, -12
1503701506879,-13, 3, 6, 4, 5, 1, 0, 3
1503701506886,7, 1, 5, 0, 4, 3, 1, -7
1503701506901,-3, -1, 3, 0, 4, 0, 1, 15
1503701506908,-20, -30, -9, -8, -2, -1, 0, -3
1503701506917,4, -2, -7, 7, 20, 5, -2, -10
1503701506924,1, 2, 1, -1, -2, -1, 5, 13
1503701506939,15, 1, -2, -2, -7, -7, -4, 9
1503701506946,20, 18, 3, -2, 1, -2, 0, 15
1503701506962,2, 3, 4, -1, -5, -5, -1, -10
1503701506969,-4, -7, -9, -9, -11, -6, -1, 0
1503701506977,0, 5, 5, -4, -3, -1, 0, 8
1503701506984,-6, 5, -3, 2, 1, 0, 1, 12
1503701507000,4, 25, 5, 3, -2, 0, -5, -19
1503701507007,-5, -6, -6, -5, -1, -2, -1, -2
1503701507014,-8, -16, -6, -4, 0, 0, -3, -1
1503701507030,2, -1, 5, 1, 7, 1, 0, -1
1503701507037,-1, -2, -1, 1, 7, 0, 0, 1
1503701507044,-1, -9, -4, -5, -11, -3, -2, -4
1503701507060,5, -14, -6, 7, 7, -1, -1, 0
1503701507067,-7, -7, 3, 1, 5, 0, -2, -1
1503701507074,-6, -24, 4, 0, -4, 1, -1, -2
1503701507091,4, 0, 0, -3, -2, 1, 0, -3
1503701507105,4, 22, 6, -1, -1, -1, 1, -1
1503701507119,-7, -1, 0, 0, -7, 2, 0, 1
1503701507127,4, -3, 3, 8, 5, 3, -5, -26
1503701507134,-6, 4, -3, -3, -4, -5, 0, 4
1503701507149,-12, -13, -13, -7, 1, -9, 2, 1
1503701507161,7, 9, 9, 6, 2, 5, -3, -3
1503701507164,-7, -26, -3, -1, -8, 0, -1, 0
1503701507180,-11, 0, -7, -2, -5, -2, 2, 4
1503701507186,-7, -13, 7, 24, 9, 4, -1, -1
1503701507194,-12, -9, 3, -22, -19, -11, -4, -2
1503701507209,-2, 3, -6, -29, -34, -4, -1, 1
1503701507216,-24, -24, -4, -10, 4, -9, -3, 0
1503701507217,8, 14, 6, 30, 24, 12, 3, 7
1503701507227,0, 4, 0, 11, -14, -3, -1, 3
1503701507239,0, 2, -3, -17, -39, -12, -1, 1
1503701507246,1, 5, 1, 1, 10, 3, 1, 1
1503701507254,-5, -3, -4, 11, 53, 7, 1, -2
1503701507269,-2, -14, -3, -7, 22, 1, -1, -1
1503701507276,-2, -7, -3, -6, -23, -3, -1, -3
1503701507283,-8, -2, -8, -11, -14, -4, -1, 0
1503701507300,-25, -5, 3, -4, 11, 4, 1, -3
1503701507306,-15, 10, 3, 5, 10, -3, -3, -13
1503701507314,6, 9, -4, -8, -10, -5, 0, 3
1503701507329,12, 28, 6, 1, -3, 3, 1, 2
1503701507337,34, 9, -7, -9, -11, -5, -3, 2
1503701507344,6, 13, 12, 3, 6, 0, -1, 2
1503701507359,-2, -7, -7, 1, 1, -3, -2, -2
1503701507367,18, 19, 3, -1, -1, 0, 0, 2
1503701507381,-13, -13, 6, 4, 3, 2, -1, 1
1503701507390,-10, -23, -7, -1, -2, -1, -1, 0
1503701507397,-8, -4, -9, -5, -3, 0, 3, 1
1503701507411,-2, -9, 0, 3, 4, 2, 1, 1
1503701507419,-1, 16, -1, -3, -8, -3, -3, -3
1503701507420,-5, 0, 6, 9, 14, 3, -2, -6
1503701507426,-4, -12, -7, -3, -5, 0, -4, -8
1503701507448,-6, -6, 2, -1, -9, -3, -3, -3
1503701507449,-3, -1, -5, -1, -11, 1, -1, 1
1503701507464,2, -5, -1, 3, 17, 0, -1, -6
1503701507471,4, -7, -2, -2, -9, -2, -1, 2
1503701507479,6, 0, 1, 0, 7, -5, 0, 1
1503701507486,-4, -7, -6, -3, -2, -4, -2, -1
1503701507501,3, -6, 4, -4, -5, 1, 1, 5
1503701507509,6, 6, -6, -2, 9, -4, -1, 4
1503701507517,7, 8, -1, -5, -9, -5, -2, 0
1503701507531,1, 6, 6, 6, 27, 17, 2, 13
1503701507540,2, -4, -9, -7, -14, -2, -4, 2
1503701507546,5, 16, -6, -4, 1, -3, 1, 3
1503701507561,-14, -16, -1, -1, 9, -2, -2, -4
1503701507569,7, -18, 2, 5, -7, -4, -2, -8
1503701507576,9, 8, -3, 0, 5, 0, 0, 2
1503701507577,3, 12, 14, 4, -4, 0, 1, 5
1503701507593,-13, -8, -4, -1, 4, 1, -3, -14
1503701507599,18, 31, 10, -3, -12, -10, -1, 6
1503701507606,-67, -38, -10, -7, -34, -9, -1, 8
1503701507621,-15, 8, -7, -2, 0, 0, -3, -11
1503701507629,14, -26, 9, 0, 4, -3, -4, -7
1503701507637,-5, -6, -4, -6, -7, 1, -1, -3
1503701507651,19, 29, -2, 2, 6, 0, -1, 6
1503701507660,8, 23, 7, 3, 3, 2, 0, 1
1503701507666,-10, 0, 0, -2, 3, -2, -1, -3
1503701507681,-6, -40, -17, -2, -5, -1, -2, -2
1503701507688,-3, -5, -4, -3, -25, -8, -3, -2
1503701507696,0, 0, -3, 8, 13, 5, -2, 1
1503701507711,15, 4, 6, 2, 17, -2, -2, 0
1503701507719,-3, 14, 8, 23, 44, 17, 7, 7
1503701507727,-4, 20, 22, 11, 22, 3, 1, 1
1503701507741,-5, -18, -7, -15, -20, -4, -4, -7
1503701507748,3, 6, -5, -6, -20, -4, 2, -6
1503701507756,0, 12, 12, 3, 4, -6, -5, -7
1503701507771,6, -18, -13, -13, -23, -7, 0, -4
1503701507779,0, -13, -6, -1, -3, 0, -4, -5
1503701507786,-1, 20, 8, 1, 3, 0, -1, 4
1503701507801,7, 3, -5, -9, -22, -8, -2, -5
1503701507808,2, -13, -8, 0, 3, 3, -4, -2
1503701507817,5, 19, 3, -5, -11, -2, 1, 3
1503701507835,-5, -14, -14, -13, -15, -1, 1, 3
1503701507840,-13, -8, 5, 10, 11, 6, 1, -2
1503701507846,0, -4, -2, -2, 4, 4, 0, 2
1503701507862,5, 1, -1, -4, -5, -5, 0, 0
1503701507869,-4, -2, 6, 6, 5, 3, -1, 1
1503701507877,0, -6, -7, 0, -11, -8, -3, -2
1503701507894,-1, 0, 0, 7, 6, 2, -3, 0
1503701507904,-5, -3, 1, 6, 5, 2, 3, 0
1503701507906,-4, 14, 5, 2, 4, -5, -3, -3
1503701507921,-7, 12, 10, -7, -9, -2, 0, 2
1503701507929,18, -13, -5, 0, 4, 2, 2, 1
1503701507937,1, -36, -16, -9, -5, -3, 0, 2
1503701507951,-20, -15, -19, -4, 3, -2, -2, -13
1503701507961,8, 15, 0, -2, -1, 0, 1, 6
1503701507966,1, 18, 2, -4, 0, -1, -1, 2
1503701507981,1, -1, -1, -1, -6, -2, 0, -4
1503701507988,5, 5, 6, 2, 3, 0, 0, 2
1503701507997,0, -4, 0, -3, 1, 2, 0, -5
1503701508011,4, 1, 5, 6, 74, -4, 1, -1
1503701508019,2, 6, 0, -1, -18, -1, -1, 1
1503701508032,11, 20, 2, -8, -20, -1, 0, 2
1503701508041,0, 11, 1, -1, -10, -6, -1, 3
1503701508048,-3, -2, -3, -2, -14, 0, -1, -2
1503701508056,11, 7, -3, 4, 14, -1, -4, -2
1503701508071,-7, -22, -11, 0, 2, -1, -4, -7
1503701508079,-5, -8, -5, -8, 4, 3, 0, 2
1503701508086,7, 3, -2, 0, -8, -1, 0, 0
1503701508101,-13, -13, 0, 2, 2, 2, -1, -4
1503701508108,5, 13, 10, -4, -20, 0, -1, -1
1503701508116,-7, -4, -3, -2, -6, 0, -2, -6
1503701508131,-10, -3, 12, 2, -6, 4, 0, -2
1503701508139,-1, 3, -2, -3, -5, -4, -1, -4
1503701508146,-10, 4, 1, 4, 0, -1, -1, 1
1503701508161,-6, -6, -1, -3, -4, 0, 1, 4
1503701508168,4, -12, -6, -1, -2, -7, 0, 3
1503701508176,0, -3, -1, -2, 3, -1, -1, 1
1503701508191,4, 4, 0, 1, -5, -4, -2, 1
1503701508199,5, -3, 0, 0, 4, -1, -2, -5
1503701508206,1, 8, 1, -1, -5, 0, -1, -2
1503701508221,2, 3, 1, -1, 1, -2, -4, -5
1503701508228,4, 3, 0, 1, -3, 1, -1, 0
1503701508237,-4, -2, -5, -2, 1, 3, -2, 3
1503701508251,-7, 0, -2, -4, 0, -1, -1, 0
1503701508259,-4, -7, -1, -1, -1, 0, -1, -2
1503701508267,-3, 8, 10, 3, 1, 2, -2, -1
1503701508281,-1, -1, 2, -3, -3, -1, 1, 2
1503701508288,-7, -22, -4, 0, -1, 3, -1, -2
1503701508296,4, 3, 1, 0, -1, -1, 2, 3
1503701508311,14, 4, -6, -1, 0, -3, 0, 1
1503701508319,-8, -10, -10, -1, 6, -1, 1, -9
1503701508333,0, -9, -6, -4, -3, -3, -1, 1
1503701508341,2, 1, 2, 3, 3, 1, -2, 0
1503701508348,4, 3, 2, -3, -1, -2, 0, 2
1503701508363,-3, -1, 8, 2, -1, -1, 0, 1
1503701508371,-5, 2, -2, 1, 1, 1, -2, -2
1503701508379,-5, 3, -1, -1, -2, 0, 1, 2
1503701508393,0, -11, -3, 2, 0, -1, -1, -2
1503701508401,1, 3, 0, -2, 0, -2, -2, 0
1503701508408,2, 10, 3, -1, 0, 1, 1, -11
1503701508423,5, -4, -2, -1, -1, 1, -1, -2
1503701508431,-8, -4, -1, -4, -4, -3, -2, -1
1503701508439,-1, 4, 1, -1, -2, -2, 0, -2
1503701508453,-3, -14, -1, 3, 2, 0, -2, -3
1503701508463,3, -8, -8, -1, -4, -3, 0, 0
1503701508468,2, 5, -2, -3, -3, -1, 1, 1
1503701508484,-12, -6, -6, -5, -3, 1, 0, -5
1503701508491,13, 7, -2, -2, -6, 2, 1, 3
1503701508499,10, 10, 5, -2, 2, 0, 0, 3
1503701508513,-17, -24, -2, -3, -8, -3, -3, -4
1503701508521,-3, -4, -6, -6, -2, -1, 0, 2
1503701508529,3, 14, 5, 4, 8, 4, 0, 0
1503701508543,-4, 4, 10, -2, -1, -2, 0, -3
1503701508551,2, 9, 3, 0, -1, -1, 2, 3
1503701508559,-3, 1, 5, 2, 2, 1, -2, -1
1503701508573,4, 4, -4, -5, 1, -2, -2, -6
1503701508581,7, 1, -3, 0, -1, 0, -1, 0
1503701508588,0, 0, -1, 3, 2, -4, -1, -2
1503701508603,-5, -11, -5, -3, -2, -2, -1, 2
1503701508611,-1, 3, 0, 1, 1, 1, -2, 3
1503701508619,1, 3, 1, 0, 11, 8, 1, 0
1503701508633,4, 3, -5, -2, -2, 1, 2, 2
1503701508641,-10, -8, -10, -3, -4, -4, -3, -2
1503701508648,0, 0, 0, -2, -2, 0, 0, -5
1503701508664,-13, 8, 1, 0, -2, -3, -3, 1
1503701508671,-7, -9, 5, 1, -2, -2, 0, 6
1503701508679,5, -3, -6, -3, -3, -3, 1, -11
1503701508693,4, -1, -3, -2, 0, -2, -1, 2
1503701508701,14, 4, 1, 0, -3, 0, 0, 2
1503701508708,-3, -14, -4, -2, 0, 1, -1, 1
1503701508724,8, -1, 1, 0, -3, 0, -3, -8
1503701508731,3, 13, 4, 2, 1, 0, -3, -1
1503701508739,23, -15, 2, 4, 1, 0, 0, 7
1503701508753,0, -24, -10, -7, -3, -1, -3, -1
1503701508761,9, -6, -4, 0, 0, 1, -2, -8
1503701508768,-8, -1, -1, -2, -2, 1, 1, 4
1503701508769,-11, -8, -2, -2, -2, -3, -5, -8
1503701508783,-8, 15, 1, -1, -2, -2, 0, 4
1503701508791,-9, 7, -3, -4, -2, -3, -1, -4
1503701508799,-15, -7, -5, -5, -2, -3, 0, 2
1503701508813,-1, -4, -6, -2, 9, 4, -2, 4
1503701508821,-5, 4, 1, 3, 1, 1, 1, -7
1503701508828,15, -2, -5, -2, -9, -6, -1, 6
1503701508843,-7, -1, -2, -4, -7, -3, 0, -2
1503701508851,-3, 2, -2, -1, -5, 0, 1, -4
1503701508859,-5, 9, 6, 1, 1, -1, -2, -13
1503701508874,5, 8, 0, 0, -4, 0, 2, 13
1503701508881,-20, -11, 0, 0, 1, 1, -1, -4
1503701508889,-41, 3, 10, 1, 2, 0, -3, -20
1503701508903,15, 3, -6, -3, -4, -4, -1, 0
1503701508904,4, 9, 1, 0, 1, -1, -2, 0
1503701508912,-4, -1, -1, -2, -11, -5, 0, 3
1503701508919,-8, 5, -3, -2, 2, 5, 3, -11
1503701508934,-4, -2, 5, 3, 6, 1, -2, -3
1503701508942,13, -5, -5, -1, -4, -4, 0, 10
1503701508949,10, 4, 1, 3, 10, 5, 2, -6
1503701508966,3, 0, 2, 0, 0, 2, 1, 14
1503701508971,4, 1, -3, -6, -10, -4, -4, 9
1503701508979,-2, -5, -2, -4, -5, -4, -4, 4
1503701508993,-5, -12, -4, -2, 1, -2, -2, -5
1503701509001,-9, -12, -4, -3, -4, -5, -4, 2
1503701509008,5, 5, -4, -2, -1, 2, 4, 2
1503701509023,-3, -5, -1, -1, 0, -2, -1, -3
1503701509032,-2, -7, -4, 0, 1, -1, -1, -3
1503701509039,5, 8, -1, -1, -1, -1, -1, 3
1503701509053,4, -1, -4, -2, -3, -2, -4, -1
1503701509061,3, 8, 1, 0, 3, 5, -1, 6
1503701509070,3, 2, -4, -5, -7, -2, -1, -2
1503701509083,2, 1, 1, 14, 11, -4, 0, -2
1503701509091,-3, -1, 5, 0, -1, 2, 0, 1
1503701509099,18, 13, 7, 3, -1, 0, 3, 23
1503701509100,5, -1, -4, -9, -15, -8, -4, -6
1503701509113,-9, -14, 3, 4, 0, 2, 4, -17
1503701509121,-1, 4, -1, -3, 0, -1, 2, 8
1503701509128,-11, 14, 3, -1, 3, -1, 1, 21
1503701509143,6, 1, 0, -1, -1, 1, -3, 1
1503701509151,8, 1, -2, -5, 0, -1, 0, 4
1503701509159,-8, -10, -1, -8, -6, -3, -2, -5
1503701509173,15, 3, -2, -3, -14, -7, -18, -4
1503701509181,3, 6, 1, -3, 21, 1, -2, -9
1503701509188,2, -1, 3, 6, 9, 5, 6, 2
1503701509204,2, -1, 0, 1, -6, 0, 2, 0
1503701509211,-21, -10, 7, 5, 10, 2, 4, -1
1503701509219,25, -25, -21, -5, -4, -1, -6, -18
1503701509236,0, 4, 5, -1, -1, -2, -1, -4
1503701509237,3, -13, -21, -7, -6, -1, 0, 12
1503701509242,-21, 28, 13, 4, 4, 1, -2, -1
1503701509255,25, 0, -3, -1, -5, -5, -1, -14
1503701509263,19, 8, 5, 1, 7, -1, -1, -14
1503701509271,-1, 3, -4, 6, 19, 2, 3, 2
1503701509286,-5, -2, 4, 2, -5, -1, 0, 15
1503701509293,0, 1, 11, -4, -3, 3, 5, -8
1503701509302,-16, -11, -2, 1, 1, -4, -1, -10
1503701509315,18, 10, -5, -4, -1, 2, 1, 9
1503701509323,-7, -6, 0, -2, 6, 3, 5, 12
1503701509331,20, 23, 11, 0, -2, 0, -2, -3
1503701509346,-8, -19, -3, -3, -11, 0, -3, -5
1503701509353,-6, -10, -6, -1, -2, -5, -3, 3
1503701509361,-9, 10, 3, 7, -8, -1, 0, 15
1503701509376,-9, 2, -4, 5, 3, 0, 0, 0
1503701509383,-5, -5, -8, -8, -13, -7, -11, -15
1503701509391,2, 0, -5, -2, -3, -2, -2, -16
1503701509406,1, -7, 0, 8, -6, 2, 4, 8
1503701509413,-8, -5, 2, -1, 0, -2, -1, -3
1503701509421,5, 14, 4, -1, 12, 3, -2, 0
1503701509437,-2, 2, 5, 7, 10, -11, -1, 14
1503701509444,8, -6, -6, -7, -8, -5, 0, 4
1503701509451,-16, -3, -2, -2, -2, 3, -2, -4
1503701509469,-3, -6, 9, 3, 4, 0, 2, 1
1503701509473,15, -12, -9, -7, -17, 0, -3, -19
1503701509481,32, 4, -2, -1, 0, 2, -1, 1
1503701509495,-4, 1, 1, 0, 11, 4, 1, 1
1503701509505,-13, 4, 0, 4, 13, 4, 1, -12
1503701509511,13, -1, 2, 0, -1, 5, -3, -1
1503701509526,15, 4, -9, -7, 1, 2, 0, -18
1503701509534,-1, -2, -6, -7, -4, -2, -7, -5
1503701509541,10, -1, 18, 4, -7, -5, -5, 1
1503701509555,-10, -5, -2, -3, -4, -6, 1, 7
1503701509564,-17, -11, -8, -6, -5, -4, 2, 0
1503701509571,-23, 0, 7, 4, -6, -1, 1, 1
1503701509586,2, 2, -3, 1, 0, -2, 0, 9
1503701509593,1, -1, -3, 1, 4, 0, 0, -2
1503701509603,-26, -17, -6, -4, 3, -1, 3, 14
1503701509615,-2, 9, 1, 2, 1, -2, 0, 9
1503701509623,-13, 0, 4, -1, -4, -2, 2, 12
1503701509631,-8, -1, -4, 1, -13, -8, -4, -12
1503701509646,-2, -10, -6, -2, 0, 0, -2, -17
1503701509653,2, 8, 5, -2, 3, 2, 0, 1
1503701509661,11, 9, -2, 0, -2, 1, -2, -2
1503701509675,5, 5, -3, -3, -1, -1, -3, -5
1503701509683,-5, 6, 2, -1, 2, 1, 0, 6
1503701509691,-2, -12, -3, -1, 2, -2, 0, 2
1503701509706,8, 5, -1, 2, 18, 4, 1, 2
1503701509713,2, -5, -2, 0, 2, -1, -1, -2
1503701509714,-3, 4, 0, -7, 5, 2, 2, 0
1503701509721,-8, -4, -3, 0, -7, 1, 0, 6
1503701509737,-2, -14, 10, 0, 0, 0, 1, 0
1503701509744,4, 6, -5, -5, -11, -3, -3, 0
1503701509751,-6, -4, -4, -1, -4, -2, -2, -1
1503701509766,-14, 5, 3, 0, -4, -2, -1, -3
1503701509774,-6, -5, -4, -3, -4, -1, -3, 0
1503701509781,-13, -1, -6, -6, -7, -4, -1, -7
1503701509795,10, 4, -2, 3, -4, 0, -1, 7
1503701509804,-6, -8, -7, -1, 2, 4, -1, -6
1503701509805,-4, 1, -2, -7, -12, -3, 1, 7
1503701509812,2, 4, -2, 1, 5, 1, 1, -3
1503701509826,11, -17, -4, 1, 2, 0, -2, 0
1503701509833,-14, -4, 5, 8, 9, 4, 3, 1
1503701509842,2, -1, 1, -1, -1, -3, 0, 2
1503701509855,-2, 3, -3, -1, -4, -1, -1, -5
1503701509864,9, 3, -1, 4, 6, 1, -3, -10
1503701509871,3, 10, 2, -1, -1, 1, 1, 5
1503701509886,-8, -12, -3, 2, -6, -2, -2, -1
1503701509893,-5, 5, 2, -5, -7, -5, -3, 2
1503701509904,3, 16, 3, -5, 5, 0, -2, -9
1503701509923,28, -10, 8, 3, 18, 5, 2, -1
1503701509925,-10, -8, -8, -3, 0, 1, -1, -11
1503701509931,5, -1, -4, 1, -2, -1, -1, -1
1503701509947,0, 10, -2, -1, 2, 0, 1, 11
1503701509953,-18, -2, 0, -5, -19, -6, -5, -7
1503701509961,3, 7, -3, -8, -7, -5, 1, 9
1503701509975,31, -5, -3, 0, -2, -4, -3, 1
1503701509983,1, -6, -1, 2, -5, -2, -4, -9
1503701509991,-5, -9, -15, -11, -6, -2, -3, -12
1503701510007,22, -9, -11, -5, -13, -5, 0, -7
1503701510013,-7, 9, 1, 9, 33, 7, -4, -2
1503701510021,-10, -10, 5, 2, -3, 1, -1, -1
1503701510036,-1, -12, -1, -6, -10, -4, 1, 17
1503701510044,5, 15, 6, -7, 6, 2, -1, -1
1503701510051,-7, 1, -15, -4, -9, -2, 2, 4
1503701510066,30, 27, 15, 11, -2, 0, -3, -4
1503701510074,0, -2, 7, 3, -2, 2, 1, -2
1503701510081,-16, -11, -5, -2, -1, -1, 2, 4
1503701510095,-4, -5, -2, -6, -12, -5, 0, -1
1503701510105,-8, -26, -5, -5, 19, 8, 2, 6
1503701510111,-19, -5, -2, 1, -4, -1, -1, -22
1503701510126,-2, -2, 4, 9, -3, -1, -1, 8
1503701510133,1, 11, 3, 2, 5, 1, -3, 7
1503701510141,-17, -10, -7, -2, -5, -4, -5, -7
1503701510155,0, 15, 4, 2, 3, 3, 2, -10
1503701510163,-5, -6, 6, 1, -1, -2, -4, -12
1503701510178,9, 1, -2, 0, -2, -2, -3, -8
1503701510186,-10, -9, 1, 1, 0, 0, 2, 21
1503701510193,16, 3, 1, -2, -6, -2, 3, 9
1503701510208,-15, -16, 0, 2, 4, -1, -5, -6
1503701510215,-4, -6, -4, -3, -2, 0, -2, -4
1503701510231,9, 9, -1, 1, 1, -2, -1, -26
1503701510239,-6, -10, -16, -14, -14, -9, -7, -4
1503701510240,-4, 3, 3, 0, 1, 1, 0, 5
1503701510246,-6, -5, -3, -5, -8, -5, 0, 12
1503701510253,-13, -8, -5, -4, 7, 0, -8, -21
1503701510268,-8, 0, -9, -5, -3, -3, -1, -8
1503701510275,0, -4, 0, -1, -2, 0, 2, 13
1503701510283,11, 10, 2, 2, 3, 2, -3, -12
1503701510298,-16, -5, -3, 3, -3, -1, 0, -1
1503701510306,14, 20, 3, 3, -1, 1, 2, 5
1503701510314,1, 0, -4, -6, -1, -1, -2, 4
1503701510335,4, 10, 15, 3, -1, -1, 1, 2
1503701510344,-5, -16, -9, -2, -4, 1, -2, 4
1503701510357,5, -6, -10, -4, -3, 0, -1, -2
1503701510366,-5, -1, -3, 2, -5, 0, -2, -2
1503701510374,3, 0, 2, -3, -4, -7, -2, -6
1503701510388,-1, -5, -2, 0, 7, -3, -2, 6
1503701510395,0, 3, -4, -4, -2, -3, -2, 6
1503701510406,-9, 1, 3, -2, -6, 1, 1, -9
1503701510418,7, -3, -6, -6, -4, -3, -2, -1
1503701510426,6, 11, 1, 1, -9, 0, 2, 3
1503701510433,-5, -4, -1, 5, 0, 1, 3, 3
1503701510448,4, 4, 5, -2, 0, -2, -1, -6
1503701510455,-6, -20, -4, -1, 5, 0, 0, -2
1503701510463,0, -4, -6, -3, 0, -2, -2, 0
1503701510478,-11, 2, 3, -2, -7, 0, -1, 10
1503701510486,0, -4, -3, -5, -5, -3, 1, 3
1503701510493,2, 5, 2, 2, -11, -2, -3, -3
1503701510508,-5, -3, 0, 0, 3, -2, -1, -3
1503701510515,-11, -16, -4, -6, 2, -1, -4, -7
1503701510523,7, -2, -1, -4, -14, -3, -5, -1
1503701510541,2, -1, 7, 15, 19, 9, 2, 2
1503701510546,9, 27, 10, -2, 23, 2, 2, 7
1503701510553,7, 9, 7, -8, 3, -7, -1, -5
1503701510568,-14, -6, 0, 24, 70, 6, 4, -4
1503701510575,28, 21, -4, 4, 52, 4, -1, -2
1503701510583,-8, -13, -3, -15, -28, -9, 0, -5
1503701510598,5, -2, -9, -10, -23, -7, -1, 0
1503701510607,0, 8, 5, 11, 24, 1, -1, -1
1503701510613,36, 19, -4, -10, -26, -2, -2, 0
1503701510628,-9, -20, -6, 0, -20, 4, 0, -1
1503701510635,-17, -13, -4, 5, 14, 2, 1, -2
1503701510643,19, -19, 0, -5, -29, -4, -4, -2
1503701510658,4, -5, 1, 2, 3, 1, -3, -5
1503701510666,12, 26, 8, 2, -28, 1, 0, 5
1503701510675,-50, -42, -13, -7, 1, -6, -3, -3
1503701510688,-11, -7, -8, -6, -6, -3, -3, -4
1503701510695,25, 33, 11, 18, 14, 3, 1, 2
1503701510703,-3, -12, 2, -1, 5, -2, 0, 3
1503701510718,-12, -12, -7, -6, -14, -1, -1, 3
1503701510726,6, -1, -8, -7, -3, -1, -3, -4
1503701510733,2, 21, 6, -3, -16, -4, -2, -1
1503701510749,16, -1, -4, -2, -2, -1, 0, 3
1503701510755,11, -16, -3, -3, -5, -1, -1, -8
1503701510763,-4, 27, 24, 18, 20, 2, -2, -9
1503701510778,-24, -9, -8, -2, -15, -3, 0, 2
1503701510786,-6, 25, -8, -7, -7, 0, -2, 0
1503701510793,-12, 3, 6, -2, -22, 0, -2, 0
1503701510809,9, 5, -1, -5, -6, -3, 1, 3
1503701510816,9, 12, -7, -6, -5, 1, 3, 5
1503701510823,-11, 3, 2, -4, -13, -3, -2, 2
1503701510838,-2, -19, 2, 1, 21, 5, 2, -6
1503701510846,-10, -59, -9, -5, 9, -2, -1, -6
1503701510853,-3, 24, -3, 0, 2, -5, -4, 5
1503701510868,-10, -1, -6, -6, -9, -4, -1, -2
1503701510876,-10, 1, 2, 1, -4, 0, 1, 2
1503701510884,-1, -7, -6, -4, -3, -1, -1, 4
1503701510899,4, 10, 4, 12, 0, -7, -5, -11
1503701510908,-3, 4, 4, 1, 4, 0, 0, -1
1503701510913,6, 24, 6, -7, -1, 1, -3, -7
1503701510928,-9, 10, 13, 8, 6, 8, 4, -2
1503701510935,-5, -13, -3, -7, -3, -6, -1, 3
1503701510944,-10, 6, -10, -6, -4, -1, 0, 1
1503701510958,-3, -11, 0, -1, 12, 5, 4, 3
1503701510966,20, 9, -2, -2, 6, -1, -1, -2
1503701510975,-10, -13, -3, 2, -4, 0, 0, -2
1503701510988,-6, 0, -3, 2, 4, 1, -2, -1
1503701510995,3, -26, 1, -3, -2, -1, -1, 2
1503701511003,15, -13, -5, -2, -13, 0, -1, 5
1503701511018,-17, -12, -4, -2, -16, -2, 0, -2
1503701511026,2, 7, -6, -5, -9, -3, -3, -3
1503701511033,-3, 8, 6, -4, -4, -5, 0, -2
1503701511048,-3, -7, -4, -1, -1, -4, 0, -8
1503701511055,6, -7, -1, 0, 8, 2, -4, -3
1503701511063,-3, -11, 5, 5, 5, -1, -3, -2
1503701511078,-13, -19, -20, -10, -5, 0, 0, -7
1503701511086,-23, -24, -26, -4, -3, -1, -3, -2
1503701511093,18, -6, 15, 7, 1, 3, 0, 10
1503701511109,4, -8, -1, 1, 3, 1, 5, 4
1503701511115,-2, 29, 10, -2, 1, 0, -2, -4
1503701511131,15, 18, 9, 1, -1, 0, -3, -1
1503701511137,-5, 12, -7, 0, -4, -2, -3, 0
1503701511146,-9, 17, 3, 0, -1, -1, 0, -1
1503701511160,9, 0, -5, 0, -1, -1, 1, 0
1503701511168,-8, 1, -8, -5, -4, -2, -2, 0
1503701511190,3, 1, -7, 2, 0, 3, 2, 3
1503701511191,-1, 3, -6, -6, -4, 0, 0, 6
1503701511199,-1, 7, 0, 2, 0, 1, -3, -1
1503701511206,-3, -11, 3, -2, -2, -2, -3, -9
1503701511221,-17, -12, 9, 0, 0, -2, -2, -6
1503701511228,7, 0, 2, -3, -7, -4, 0, 4
1503701511236,7, 5, -3, -2, -3, 3, 0, -1
1503701511252,-8, -18, 0, 2, 3, 2, 0, -1
1503701511266,5, 8, 2, -3, -4, -4, 0, -1
1503701511267,5, 3, -3, -1, -4, -2, -1, 1
1503701511282,13, 21, 12, 2, -4, -4, 0, 1
1503701511288,1, 10, 6, 3, 3, 1, 0, -2
1503701511296,14, -4, -7, 1, 2, 0, 0, -4
1503701511315,-2, -12, -5, 0, 3, -1, 0, 2
1503701511319,-3, -14, -9, -3, 0, 0, 1, 5
1503701511326,0, -15, -5, 0, -4, -3, -1, -2
1503701511344,-13, -28, -4, 3, 7, 1, -1, -1
1503701511348,-10, -15, -4, -2, -2, -1, -1, 1
1503701511356,-4, -18, -5, -2, 1, 0, -2, 1
1503701511371,-4, 8, 6, 0, -6, -3, -2, -3
1503701511379,9, 4, 5, 1, -2, -1, -4, -1
1503701511386,-13, -20, -1, -2, 3, 1, -1, -6
1503701511401,-5, 13, -1, 0, 1, 3, 2, 1
1503701511411,-16, -17, 0, -1, -3, -1, 0, 3
1503701511412,-14, 5, 15, 5, 2, 0, -1, 0
1503701511417,-5, -11, -3, -2, 1, 0, 1, 1
1503701511431,-2, 9, 0, 0, -3, 1, -2, 0
1503701511439,6, 19, 6, -3, -2, -1, -3, -8
1503701511446,-12, 18, 0, -1, 3, 0, -1, 7
1503701511461,7, 12, 2, 5, 9, 2, -2, 5
1503701511468,6, -2, -6, -3, -2, -1, -3, -9
1503701511478,-25, -28, -11, -5, -11, -6, -1, -1
1503701511491,9, -20, 2, 5, 6, 3, 1, -3
1503701511499,1, 3, 0, -1, -1, -3, -2, -1
1503701511506,6, 2, -4, -2, -18, -3, 1, 3
1503701511522,3, -3, -2, 2, -1, 0, -3, -3
1503701511528,16, 10, 1, -3, -4, 3, -2, 0
1503701511536,8, 7, 5, -1, 9, 4, 3, 2
1503701511551,-4, -15, -6, -10, -24, -8, -2, -4
1503701511559,-1, -30, -2, -3, -6, -4, 1, 4
1503701511566,4, 15, 6, 2, 9, 1, 2, -1
1503701511588,-3, 10, -2, -1, 3, 2, -2, -4
1503701511589,-7, -8, -9, -2, 2, -3, -4, -8
1503701511596,4, 13, 2, 1, -3, 2, -2, -12
1503701511612,2, 13, 5, 2, 9, 7, 0, 7
1503701511619,-8, -8, -3, -4, -4, 0, 3, 1
1503701511626,-1, 2, -8, -8, 3, -6, 0, -2
1503701511641,-20, -12, -10, -5, 0, -4, 1, -1
1503701511649,8, 9, 10, 1, 17, 0, -1, -5
1503701511664,16, 7, -2, 0, 6, 6, 2, 1
1503701511671,-6, 3, -5, -1, -3, -4, 0, 2
1503701511680,-5, -1, -4, -3, 1, -2, -3, -2
1503701511693,12, 3, 0, 4, 9, 13, -8, 4
1503701511701,-10, 6, -1, -1, -5, -4, -3, 8
1503701511708,-17, -1, -9, 0, -6, 2, 6, 0
1503701511716,7, 9, 8, 5, 2, 3, -4, 6
1503701511731,16, -2, -3, 2, -2, -4, 2, 16
1503701511739,-2, 20, 9, 5, -4, -7, 0, 2
1503701511747,22, 2, -2, -1, 0, -1, -1, 1
1503701511761,-10, -12, -8, -1, 2, 3, 3, -4
1503701511768,-20, -91, -9, 0, 0, -2, 1, -10
1503701511776,-8, -15, -15, -5, -2, -5, -7, -9
1503701511791,-20, 14, -4, -10, -5, 2, 2, -1
1503701511799,4, -24, -4, -8, -17, -3, -19, -5
1503701511806,-14, -2, 6, 3, 9, -2, 2, -6
1503701511822,14, 24, 6, -1, -1, -8, -8, -1
1503701511828,12, 16, 4, 22, 7, 0, 32, 9
1503701511844,-14, -4, 2, 2, 9, -9, -1, -14
1503701511851,-27, 9, -2, -11, -8, -1, 15, -4
1503701511859,-38, -8, 3, 1, 0, 7, -35, -13
1503701511866,22, 20, -5, -7, 6, -6, -28, -7
1503701511882,10, -2, -1, -4, -15, -2, 1, 5
1503701511888,-6, -16, -5, 0, -7, 3, 4, 11
1503701511904,-51, -9, -4, -2, 0, 3, 8, -12
1503701511917,-1, 13, 3, -5, -2, -4, 2, 7
1503701511920,6, 4, 1, 1, 1, 3, 18, 1
1503701511926,5, 13, -1, -2, -3, -2, -11, -4
1503701511942,8, -2, -5, 1, -2, -3, 9, -19
1503701511948,25, 20, 0, -1, 0, -2, -4, -5
1503701511964,16, 0, -1, 2, 3, 1, 4, 16
1503701511971,0, -1, 5, 3, -1, 1, -3, -5
1503701511981,2, 12, 3, -4, -11, -10, -4, -11
1503701511982,22, 11, -4, -5, -4, 3, 0, -17
1503701511986,-11, -1, -4, -9, 2, 2, 0, 3
1503701512009,0, -9, 7, 8, 20, -18, -19, 13
1503701512010,12, -8, 2, 5, 1, 6, 3, -14
1503701512024,21, 11, 5, 2, 3, 9, 12, 8
1503701512031,11, 4, -1, 0, 0, -7, 0, 3
1503701512039,2, -9, -5, -4, 7, 6, 5, 11
1503701512053,5, 18, 1, -1, -14, 3, -1, -14
1503701512061,1, 21, -3, 3, 9, 9, 10, 1
1503701512068,26, -2, -3, -5, -7, -3, -8, -2
1503701512084,9, -30, -5, -6, -15, 0, -5, 8
1503701512091,-31, -15, -6, 0, -4, 2, 3, -3
1503701512099,1, -6, 12, 2, -8, 0, 4, 15
1503701512114,4, 1, -11, -3, -1, -5, -9, 6
1503701512122,-38, 10, -3, -1, -1, -3, -8, -19
1503701512128,-16, 7, 5, 1, 8, -3, -3, 7
1503701512144,-15, -6, -8, -1, -5, -2, 5, -8
1503701512151,22, -20, -5, 0, 0, 7, -5, -16
1503701512159,24, 11, -4, -8, -9, -5, 1, 18
1503701512173,7, 10, 4, 4, 2, 0, -3, -1
1503701512182,50, 15, 7, 3, 4, -1, -5, -12
1503701512188,7, 4, 4, 4, 2, 0, 1, 13
1503701512204,-5, 1, -8, -5, -17, -3, -7, -35
1503701512211,7, -8, -4, -3, -5, -4, -12, -15
1503701512219,1, -10, -3, -2, 4, 2, 0, -14
1503701512233,-29, -8, -2, -4, -11, 4, 1, -1
1503701512242,0, -7, 5, -1, 11, 8, 5, 12
1503701512249,-1, -9, -2, -5, 22, 0, 5, 20
1503701512264,-20, -13, 0, 0, 3, -8, 5, 18
1503701512271,-41, -6, -3, -3, -8, -4, 1, 9
1503701512279,-12, 5, 1, 1, -4, -11, 1, 3
1503701512293,24, 14, 9, -5, -10, -9, 1, -1
1503701512301,-42, -34, -4, -3, -8, -3, -3, -3
1503701512309,-8, -19, -1, 3, 1, 0, -3, 8
1503701512325,7, 15, -4, -1, -9, -4, 5, 7
1503701512331,7, 15, -2, 1, -7, -15, -12, -9
1503701512339,26, 21, -3, 1, 0, 1, -2, 3
1503701512354,11, 30, 15, 4, 0, 5, -1, -7
1503701512361,5, 12, 7, 2, -1, 1, 3, 15
1503701512368,-13, -14, -7, 0, 2, -1, 0, -2
1503701512384,25, 4, -2, 3, 4, 2, -2, -1
1503701512392,-5, -17, -10, -5, -3, -2, 2, -4
1503701512399,-9, -7, 0, -1, 1, 2, 0, 4
1503701512416,-7, 1, 0, 5, 6, -18, -26, -9
